25
316
1385
2699
3265
3538
4061
4456
4726
5059
5331
5566
5867
6137
6334
6533
6724
6857
6996
7179
7348
7449
7545
7710
7837
7869
7966
8142
8175
8137
8477
9252
9874
9548
8529
8196
8569
8625
8482
8534
8588
8576
8588
8611
8661
8682
8630
8661
8738
8677
8621
8672
8658
8578
8588
8654
8649
8557
8520
8541
8496
8463
8515
8524
8456
8416
8416
8360
8254
8179
8053
7865
7747
7672
7552
7435
7365
7304
7217
7163
7160
7095
6982
6980
6987
6839
6740
6773
6695
6548
6524
6519
6463
6444
6364
6195
6111
6109
6078
5991
5907
5874
5836
5754
5714
5691
5597
5515
5498
5461
5385
5331
5291
5226
5155
5120
5094
5019
4949
4935
4883
4777
4740
4723
4632
4561
4552
4510
4439
4399
4357
4275
4209
4188
4169
4122
4089
4071
4010
3937
3902
3857
3777
3735
3723
3676
3615
3585
3549
3488
3430
3366
3397
3758
4458
4789
3953
2871
2897
3221
2955
2770
2873
2836
2739
2758
2753
2692
2685
2699
2669
2631
2613
2582
2549
2542
2540
2514
2483
2486
2495
2479
2474
2481
2460
2429
2446
2474
2453
2401
2373
2338
2239
2127
2030
1913
1807
1751
1706
1655
1624
1608
1582
1565
1558
1547
1533
1523
1516
1500
1483
1481
1479
1457
1439
1436
1413
1378
1375
1368
1335
1319
1326
1321
1293
1244
1206
1202
1197
1190
1180
1141
1105
1115
1115
1096
1096
1094
1072
1065
1075
1065
1051
1047
1042
1030
1028
1018
986
953
948
946
932
929
950
967
964
955
950
934
908
889
885
880
875
875
868
854
847
838
793
753
922
1481
2155
2091
1065
394
699
875
633
605
697
652
629
664
666
657
669
673
657
629
626
650
666
666
664
664
645
617
624
659
673
687
718
746
763
786
807
802
784
758
678
561
467
387
309
267
253
239
225
225
230
234
239
251
262
258
260
277
286
286
295
298
295
305
319
321
316
314
319
319
319
312
295
286
291
302
302
300
307
307
300
305
314
298
269
269
281
279
279
291
293
284
288
302
302
298
305
291
262
265
281
279
267
246
223
223
255
291
305
295
293
295
279
269
279
277
272
284
291
286
286
286
251
208
345
861
1591
1760
873
18
157
394
197
131
223
190
152
190
204
194
208
225
234
251
262
265
279
295
293
274
262
272
295
323
349
370
399
424
443
464
490
507
500
471
415
323
218
122
32
-37
-68
-72
-77
-82
-75
-70
-68
-53
-32
-21
-21
-11
2
11
18
37
46
46
56
72
77
79
86
89
86
96
110
115
105
89
84
91
100
105
110
107
110
122
126
129
138
138
131
136
138
112
93
103
112
110
117
131
133
126
133
145
145
145
154
152
140
126
107
105
126
159
183
176
171
183
171
152
157
166
161
164
169
147
126
138
138
79
91
413
1101
1673
1279
201
-131
197
171
-4
56
86
30
44
79
82
96
115
119
124
126
129
147
169
173
178
204
230
239
232
244
269
293
326
359
377
387
392
385
363
326
272
190
84
-2
-49
-79
-98
-105
-115
-112
-93
-86
-86
-75
-63
-61
-51
-30
-21
-18
-11
2
11
16
28
37
32
37
46
35
16
25
37
32
25
25
32
32
35
44
49
53
68
75
68
72
84
84
84
93
93
86
79
63
51
53
61
63
70
79
89
91
84
89
105
105
86
75
72
72
93
136
152
136
136
145
133
119
131
136
122
122
138
138
140
147
131
75
79
352
993
1634
1385
298
-185
152
204
-7
21
75
23
9
28
23
18
30
51
65
77
93
105
115
129
152
178
192
201
213
204
201
232
253
258
281
314
333
338
335
312
253
159
63
-7
-61
-103
-122
-131
-136
-124
-112
-115
-110
-91
-77
-68
-56
-51
-51
-37
-16
-4
-4
2
14
21
23
32
39
32
35
49
51
42
39
39
37
44
58
63
61
63
61
46
37
51
58
44
49
63
61
61
72
70
49
32
44
58
53
53
61
61
68
79
70
44
42
65
93
119
122
110
107
112
105
98
100
103
100
103
110
119
122
107
72
49
220
777
1483
1493
507
-204
37
199
-23
-39
42
-9
-21
32
32
18
42
63
68
82
100
103
103
115
124
126
126
136
145
147
166
199
215
213
218
246
274
288
293
269
215
150
72
-16
-82
-115
-140
-152
-143
-136
-143
-136
-115
-100
-93
-77
-65
-68
-53
-30
-28
-25
-11
0
2
9
18
25
25
23
30
35
37
42
44
35
35
46
49
46
58
63
49
56
72
72
65
72
82
86
89
93
91
82
82
91
86
77
63
30
2
2
16
21
16
9
0
-2
28
72
77
53
63
84
72
63
77
70
56
72
105
117
103
82
63
28
86
476
1187
1598
953
-72
-157
185
77
-61
9
4
-44
-25
4
14
14
21
61
84
65
56
77
100
93
84
110
133
140
171
208
230
248
281
314
347
380
401
373
295
255
230
143
42
-28
-96
-150
-157
-147
-169
-176
-166
-173
-171
-150
-133
-122
-122
-119
-84
-51
-56
-68
-58
-46
-39
-25
-11
-2
-2
-4
2
14
18
18
28
23
-4
-7
7
-2
4
30
37
39
53
53
49
44
32
32
63
98
89
65
70
63
51
65
82
103
124
115
96
96
84
61
56
63
58
35
28
51
61
53
37
9
178
753
1413
1288
269
-328
-2
166
-35
-32
44
0
-4
44
39
28
46
51
49
65
86
96
103
105
105
126
166
190
194
206
241
272
281
291
323
349
349
356
377
354
265
145
46
-18
-77
-115
-126
-145
-154
-140
-129
-133
-150
-147
-131
-150
-176
-145
-110
-110
-107
-91
-70
-53
-56
-53
-44
-37
-28
-16
-18
-18
-11
-7
-4
7
23
23
-2
-9
23
21
-11
9
37
21
14
23
18
14
23
30
35
44
46
39
42
61
93
110
103
105
105
98
89
77
91
91
68
84
100
91
72
35
91
476
1169
1549
894
-110
-190
136
21
-100
-9
-2
-42
-4
25
21
35
51
53
68
84
93
105
129
143
150
176
204
215
230
251
260
272
305
335
352
359
359
340
295
234
166
75
-9
-51
-77
-107
-124
-131
-161
-197
-180
-140
-150
-171
-150
-129
-124
-110
-98
-100
-91
-70
-61
-56
-49
-44
-42
-44
-61
-75
-70
-63
-56
-44
-37
-32
-28
-30
-21
-2
4
7
14
11
11
23
35
37
23
23
51
84
98
98
96
82
63
72
86
79
61
46
53
65
68
44
-9
68
502
1187
1479
774
-147
-152
154
23
-84
11
11
-35
0
37
42
53
58
61
77
91
103
129
143
138
138
140
138
154
192
220
232
267
328
366
377
399
422
408
361
300
211
105
21
-35
-79
-107
-117
-133
-154
-150
-133
-126
-117
-112
-112
-110
-110
-100
-84
-82
-75
-56
-49
-42
-42
-68
-72
-63
-75
-79
-68
-70
-89
-103
-96
-82
-98
-117
-103
-105
-122
-93
-46
-32
-28
-11
-4
-23
-46
-51
-39
-49
-68
-53
-39
-39
-35
-46
-63
93
608
1223
1157
208
-427
-112
145
-23
-44
37
16
14
49
44
51
77
82
93
122
129
124
136
154
169
185
206
220
244
281
312
335
354
385
424
443
455
457
424
356
277
183
84
14
-30
-65
-79
-82
-86
-86
-84
-79
-72
-72
-75
-75
-86
-98
-100
-110
-103
-75
-70
-77
-61
-39
-39
-46
-42
-32
-32
-30
-14
-11
-25
-21
-16
-25
-25
-14
-16
-23
-16
-4
-2
-14
-21
-32
-42
-21
23
39
21
14
14
-16
-35
-21
-21
-37
-30
-14
-14
-11
-16
-58
-61
201
835
1434
1155
110
-316
39
96
-105
-77
-28
-68
-46
-7
-9
-9
-14
-23
-2
16
2
-2
32
61
68
91
126
145
166
197
227
253
288
321
340
359
385
394
366
305
230
136
35
-28
-61
-93
-112
-105
-100
-107
-93
-68
-72
-79
-61
-49
-49
-44
-35
-30
-23
-4
2
-4
-2
11
16
14
21
23
11
14
30
28
14
11
21
25
28
39
39
23
0
2
18
9
-7
-14
-30
-37
-21
-14
-35
-49
-37
-11
25
51
44
30
32
21
0
-7
-11
-30
-46
-37
-23
-25
-53
-91
-14
373
1056
1490
901
-93
-190
110
-28
-150
-46
-42
-82
-39
-9
-18
-2
18
18
28
53
75
84
89
107
124
129
147
183
201
213
246
286
307
309
307
319
338
342
323
267
178
91
21
-30
-63
-84
-117
-136
-122
-105
-110
-107
-93
-89
-79
-65
-68
-84
-82
-61
-53
-61
-44
-21
-21
-23
-9
0
0
2
9
9
16
25
32
35
28
30
42
44
46
53
46
51
65
63
49
44
25
-4
-4
14
11
2
9
11
-2
0
28
46
32
21
30
16
-11
-18
-23
-32
-30
-23
-23
-21
-14
-30
-79
-37
316
1000
1469
957
-77
-312
14
-30
-183
-119
-84
-112
-84
-58
-58
-39
-18
-7
16
32
30
42
79
107
119
131
154
183
208
237
267
293
323
361
385
399
413
399
354
295
220
126
39
-25
-72
-100
-112
-117
-115
-126
-147
-150
-136
-124
-103
-91
-100
-84
-63
-65
-58
-35
-32
-35
-14
-7
-16
-11
-11
-39
-46
-21
-7
-18
-23
-7
-9
-32
-37
-32
-42
-46
-28
-21
-28
-21
-7
-14
-18
2
11
-9
-14
16
37
39
39
32
11
-16
-37
-46
-49
-46
-44
-37
-32
-25
-21
-44
-77
49
535
1192
1267
347
-448
-199
112
-75
-131
-28
-51
-70
-16
0
-4
9
25
37
56
68
63
63
82
107
129
145
166
194
218
237
267
309
338
352
370
396
401
387
356
286
180
89
18
-49
-98
-110
-119
-126
-110
-96
-98
-96
-100
-107
-96
-72
-61
-61
-63
-49
-28
-21
-16
-2
-2
-11
-14
-14
-25
-44
-56
-46
-39
-37
-28
-28
-32
-23
-11
-9
0
9
-7
-28
-37
-51
-65
-61
-53
-56
-53
-44
-35
-37
-46
-49
-37
-14
16
32
21
18
32
25
11
21
28
21
23
35
46
46
32
-9
-25
185
765
1418
1279
258
-277
18
79
-124
-93
-25
-65
-46
-2
-11
-11
21
30
28
28
18
21
49
72
89
110
133
152
169
199
232
253
267
279
295
314
333
347
338
291
227
157
77
11
-28
-58
-82
-82
-72
-70
-70
-65
-56
-51
-42
-30
-28
-35
-37
-39
-42
-32
-23
-28
-37
-44
-44
-37
-32
-35
-39
-56
-58
-39
-42
-63
-63
-61
-70
-70
-58
-61
-63
-53
-58
-84
-91
-75
-70
-68
-53
-39
-42
-42
-30
-16
-14
-21
-32
-44
-46
-23
11
35
44
44
42
42
37
35
37
37
44
51
53
63
68
42
-4
37
347
983
1551
1195
159
-159
145
96
-77
-23
7
-35
-11
21
16
16
35
51
61
68
82
89
77
75
100
124
136
150
173
190
192
208
241
260
277
307
326
323
314
281
213
119
37
-18
-61
-93
-100
-103
-100
-91
-91
-107
-112
-96
-89
-89
-77
-72
-77
-65
-53
-49
-46
-39
-32
-28
-25
-30
-46
-58
-63
-63
-58
-65
-75
-75
-72
-63
-53
-53
-53
-46
-42
-44
-35
-18
-18
-25
-14
-4
-7
-2
4
-16
-35
-32
-44
-63
-51
-42
-46
-49
-44
-39
-30
-16
7
30
32
35
35
14
7
25
37
32
35
39
42
46
42
-2
21
340
995
1521
1110
84
-192
133
84
-77
-7
16
-30
-2
28
9
14
46
51
44
56
79
89
103
122
133
147
178
199
206
227
253
269
295
335
361
366
370
385
366
295
213
140
53
-30
-89
-122
-152
-176
-187
-197
-201
-187
-171
-166
-164
-152
-133
-119
-105
-98
-107
-115
-107
-112
-122
-110
-100
-107
-107
-91
-82
-84
-86
-79
-75
-70
-56
-51
-58
-61
-53
-49
-39
-23
-23
-28
-11
2
-7
-7
7
7
4
21
32
18
0
14
44
63
79
89
79
61
37
9
4
16
18
9
7
14
30
28
-9
-23
173
718
1286
1077
61
-467
-70
138
-51
-44
32
-11
-16
37
46
39
53
72
77
89
117
131
129
136
157
173
176
192
220
232
251
286
316
335
347
366
382
385
373
335
253
150
65
-4
-63
-98
-110
-115
-115
-112
-105
-98
-100
-115
-136
-140
-131
-143
-159
-159
-145
-136
-136
-129
-119
-119
-110
-98
-93
-96
-91
-79
-72
-72
-58
-51
-58
-51
-37
-51
-65
-53
-44
-51
-46
-25
-14
-14
-14
-18
-28
-28
-18
-25
-35
-7
32
49
49
51
51
37
32
42
44
39
44
51
51
61
65
30
-9
143
652
1324
1429
561
-201
-42
138
-70
-117
-30
-51
-70
-28
-11
-7
11
21
32
49
58
65
86
96
105
131
161
176
187
208
225
246
279
305
319
328
345
347
321
284
225
122
18
-44
-91
-124
-136
-140
-154
-154
-140
-131
-133
-126
-110
-100
-98
-86
-79
-89
-96
-89
-93
-98
-89
-79
-84
-84
-70
-61
-70
-98
-131
-140
-124
-103
-98
-105
-100
-77
-65
-63
-51
-44
-44
-32
-18
-11
-9
-11
-4
4
9
21
21
4
0
18
44
68
89
86
75
68
49
25
23
30
28
14
7
21
28
4
-30
-16
218
805
1443
1272
253
-241
72
122
-91
-49
21
-25
-18
28
25
21
49
65
63
75
77
53
53
86
110
122
138
159
176
197
225
255
274
288
314
340
347
347
340
302
232
159
89
21
-25
-53
-84
-107
-103
-93
-103
-107
-110
-119
-112
-96
-91
-91
-86
-70
-56
-56
-58
-70
-103
-133
-129
-112
-122
-126
-110
-100
-103
-91
-79
-86
-84
-65
-58
-58
-51
-44
-44
-42
-42
-56
-75
-86
-75
-58
-56
-44
-32
-37
-35
-18
-18
-28
-21
0
21
44
61
61
53
49
37
32
42
56
58
53
56
65
68
39
-14
39
424
1103
1495
882
-89
-159
164
35
-98
2
16
-35
-4
30
25
37
61
53
30
42
77
86
84
103
124
145
173
197
206
215
237
258
279
291
288
288
300
300
288
246
164
70
-7
-58
-93
-115
-129
-136
-131
-124
-126
-133
-131
-126
-119
-107
-91
-82
-77
-75
-72
-72
-72
-70
-72
-77
-72
-70
-79
-82
-89
-103
-103
-86
-84
-91
-89
-84
-84
-82
-72
-65
-70
-70
-53
-42
-37
-28
-14
-18
-23
-11
-14
-28
-32
-21
-9
-4
-18
-42
-56
-63
-61
-49
-39
-28
-21
-23
-16
2
2
-30
-44
152
704
1333
1216
234
-309
4
129
-70
-56
25
-9
-18
9
9
11
32
44
49
61
79
100
115
122
133
152
169
185
211
232
244
262
295
319
333
352
363
361
349
316
248
159
79
25
-14
-58
-84
-89
-96
-96
-93
-110
-110
-93
-110
-140
-129
-107
-107
-105
-91
-86
-82
-68
-56
-53
-58
-49
-37
-35
-39
-49
-61
-75
-77
-68
-65
-77
-79
-75
-75
-70
-61
-53
-53
-44
-35
-32
-30
-18
-16
-21
-11
-7
-16
-28
-18
4
30
51
58
49
44
37
30
32
44
51
42
30
35
44
37
0
-21
169
709
1349
1319
377
-277
-30
122
-82
-89
-11
-75
-89
-23
-14
-23
7
25
21
37
65
79
89
107
126
136
147
173
199
213
234
269
295
316
352
370
370
377
387
349
260
171
98
25
-32
-56
-70
-96
-91
-70
-68
-72
-75
-84
-86
-72
-58
-53
-65
-68
-58
-51
-44
-28
-28
-39
-35
-42
-75
-93
-96
-105
-112
-103
-96
-96
-82
-79
-91
-86
-72
-61
-53
-58
-53
-46
-65
-68
-53
-58
-72
-68
-63
-53
-28
2
18
23
21
11
-7
-7
11
18
14
23
35
32
25
23
2
4
251
852
1333
903
-117
-385
49
124
-25
25
49
-2
21
53
46
61
77
79
96
112
115
105
98
115
136
145
159
183
208
237
267
288
312
349
377
392
406
399
363
305
230
129
25
-42
-77
-119
-150
-145
-138
-150
-140
-117
-110
-105
-91
-86
-89
-86
-79
-72
-65
-61
-56
-53
-49
-39
-37
-44
-35
-21
-23
-32
-39
-49
-65
-77
-82
-77
-68
-63
-61
-61
-58
-46
-42
-51
-51
-56
-86
-93
-84
-86
-75
-32
-2
0
-4
-4
-16
-28
-21
-4
-4
-7
-4
-7
-21
-18
-32
-75
44
544
1241
1368
490
-305
-131
107
-75
-122
-53
-100
-103
-46
-44
-46
-16
-9
-11
16
39
42
61
82
93
107
133
145
147
164
197
223
246
284
319
328
338
354
354
314
241
147
49
-37
-82
-103
-124
-136
-131
-122
-122
-107
-91
-91
-86
-70
-61
-56
-49
-53
-72
-61
-32
-35
-53
-56
-42
-42
-42
-30
-23
-30
-28
-18
-16
-14
-7
-4
-9
-4
-7
-21
-32
-37
-42
-56
-68
-58
-51
-61
-58
-58
-75
-84
-79
-75
-56
-21
4
4
2
7
-2
-23
-18
4
7
-7
-18
-32
-37
-35
-68
-77
157
758
1413
1272
253
-281
14
79
-124
-98
-39
-93
-82
-30
-30
-25
2
11
14
35
56
68
82
98
112
129
154
180
197
213
241
272
293
323
354
366
368
377
368
319
234
126
11
-70
-107
-124
-140
-150
-143
-131
-129
-119
-105
-105
-103
-82
-70
-70
-63
-65
-89
-93
-72
-70
-89
-86
-70
-63
-63
-51
-46
-53
-53
-53
-63
-61
-51
-51
-49
-49
-51
-51
-61
-75
-72
-63
-63
-53
-44
-46
-46
-39
-32
-28
-21
-21
-25
-25
-21
-14
-4
16
42
46
37
30
9
-4
7
18
16
16
25
18
0
-2
-7
-51
7
385
1070
1507
943
-39
-169
103
-35
-150
-44
-32
-72
-39
-11
-14
2
21
25
21
25
42
65
84
98
105
126
159
180
199
227
253
277
312
345
363
380
392
385
354
312
241
138
46
0
-30
-68
-84
-79
-84
-96
-98
-96
-91
-89
-77
-70
-65
-49
-35
-46
-65
-56
-39
-39
-32
-25
-49
-68
-49
-39
-42
-39
-63
-98
-93
-72
-75
-86
-100
-105
-96
-91
-105
-115
-110
-100
-89
-75
-63
-56
-58
-65
-53
-30
-25
-30
-23
-14
-16
-16
-9
-4
-2
16
61
79
61
58
58
37
35
56
61
46
37
30
37
49
49
9
-11
190
767
1373
1173
161
-342
16
164
-23
-7
63
18
16
51
56
65
77
56
49
75
75
58
77
103
112
119
136
152
173
199
223
246
272
302
331
349
366
380
363
321
258
171
77
14
-28
-65
-89
-96
-96
-96
-100
-105
-110
-110
-93
-75
-70
-82
-86
-82
-79
-70
-56
-53
-53
-56
-65
-77
-77
-79
-89
-93
-84
-82
-84
-77
-68
-75
-75
-61
-53
-53
-56
-79
-98
-82
-61
-56
-56
-63
-65
-65
-75
-70
-53
-58
-53
-32
-25
-28
-18
-14
-21
-23
-14
0
18
49
63
53
53
61
51
37
42
56
58
56
61
65
63
49
7
-11
180
741
1427
1403
431
-215
32
152
-58
-49
35
-9
-14
30
23
23
53
65
63
72
86
96
107
129
138
126
122
152
180
185
197
223
244
272
305
326
328
321
312
286
230
150
63
-16
-68
-100
-140
-161
-152
-154
-159
-145
-133
-143
-152
-152
-157
-159
-147
-131
-133
-145
-138
-119
-115
-110
-96
-98
-100
-82
-68
-70
-68
-63
-61
-56
-44
-35
-32
-35
-28
-18
-14
-4
0
-2
-2
9
18
9
-14
-30
-28
-28
-28
-11
-9
-16
-4
4
4
14
23
21
18
25
21
11
23
49
75
82
84
89
79
61
56
51
32
35
46
39
37
53
49
4
-35
82
535
1237
1509
751
-131
-82
152
-25
-96
4
-9
-42
2
23
14
35
56
49
51
75
91
100
103
103
117
133
143
138
131
138
166
199
225
255
288
300
298
302
293
234
140
44
-42
-103
-136
-157
-176
-187
-185
-173
-164
-152
-140
-140
-140
-126
-105
-103
-112
-107
-93
-96
-86
-70
-86
-107
-93
-77
-77
-70
-65
-68
-58
-39
-30
-37
-37
-23
-14
-11
-2
9
9
4
16
21
21
32
39
30
28
39
23
-9
-4
4
-4
2
23
32
30
28
30
35
37
42
46
39
32
46
82
107
100
89
93
91
75
72
77
70
72
84
84
89
79
42
2
7
206
767
1375
1176
126
-403
-23
136
-68
-53
25
-14
-21
14
2
-7
16
32
39
53
72
75
82
105
126
138
147
164
171
150
145
180
199
197
225
262
274
281
286
253
180
100
21
-58
-117
-150
-171
-180
-176
-166
-166
-164
-150
-131
-124
-115
-98
-96
-98
-86
-84
-91
-86
-70
-63
-65
-56
-39
-44
-51
-35
-25
-25
-16
-11
-32
-53
-39
-18
-18
-23
-18
-11
-4
2
11
14
11
16
23
28
32
25
2
-18
-30
-32
-23
-16
-11
-9
-7
4
16
9
-4
2
11
21
53
79
68
58
79
79
53
51
63
58
53
68
72
65
63
44
-16
-23
246
875
1472
1216
197
-241
68
98
-110
-77
-16
-56
-42
-9
-18
-14
7
14
25
42
44
56
77
72
53
65
75
72
86
107
112
126
152
173
178
190
215
230
218
194
152
77
-4
-65
-119
-154
-164
-161
-164
-164
-157
-145
-136
-124
-107
-98
-103
-93
-72
-65
-65
-70
-82
-79
-61
-49
-46
-42
-35
-30
-30
-18
-9
-11
-16
-9
2
4
7
18
16
11
21
30
30
32
35
35
37
46
53
49
42
32
25
25
35
37
30
14
-2
-4
-11
-25
-18
-14
-14
-9
-4
-9
0
35
61
53
49
65
56
37
39
51
51
49
53
56
51
44
25
-18
-30
183
755
1418
1352
366
-255
-7
96
-115
-103
-18
-58
-70
-28
-21
-16
4
14
9
11
16
16
16
23
42
61
77
89
96
105
126
152
180
215
239
244
234
230
234
223
173
93
18
-44
-117
-169
-176
-183
-194
-180
-157
-154
-159
-143
-122
-119
-115
-100
-89
-91
-100
-96
-82
-75
-65
-61
-56
-46
-37
-30
-25
-25
-21
-21
-11
7
9
-4
0
14
16
16
30
35
23
30
51
44
35
53
56
28
14
30
37
35
39
39
35
39
51
46
28
16
23
23
11
11
16
21
53
89
84
65
75
68
28
9
25
30
23
32
46
49
37
21
-9
-16
204
798
1361
1070
35
-403
-16
117
-68
-53
9
-21
-16
14
14
16
32
39
37
37
44
46
49
53
68
98
126
131
131
152
180
206
234
262
288
309
335
347
333
291
204
91
0
-63
-117
-157
-180
-185
-180
-176
-169
-159
-150
-138
-124
-115
-112
-105
-86
-70
-75
-75
-72
-89
-96
-77
-70
-70
-61
-58
-53
-44
-35
-32
-28
-23
-18
-16
-7
4
7
2
11
16
16
21
30
32
25
30
46
49
35
25
28
28
35
46
46
42
39
35
28
35
51
68
110
119
61
9
2
16
25
28
30
39
44
39
46
53
44
11
-4
159
690
1375
1394
439
-260
-25
119
-117
-131
-32
-77
-93
-42
-35
-44
-18
-2
-4
4
28
44
53
58
58
58
68
86
103
115
133
164
187
199
220
248
262
272
279
255
197
119
32
-46
-96
-119
-143
-173
-204
-208
-197
-183
-169
-157
-154
-140
-122
-112
-107
-96
-89
-84
-68
-53
-53
-63
-63
-49
-42
-37
-30
-28
-35
-32
-18
-16
-16
-9
-18
-42
-44
-25
-23
-28
-23
-16
-9
0
9
7
2
9
18
18
21
30
25
11
14
28
28
25
21
16
7
16
39
61
72
72
72
72
49
9
-9
2
11
11
11
18
23
25
2
-35
44
434
1119
1533
922
-77
-171
133
-9
-143
-49
-49
-96
-56
-32
-44
-32
-9
2
7
14
30
46
61
77
96
96
98
119
126
129
154
180
183
190
223
244
234
230
227
190
115
37
-35
-98
-136
-154
-171
-178
-176
-169
-164
-154
-140
-145
-166
-161
-138
-129
-122
-100
-89
-89
-77
-63
-58
-51
-42
-49
-61
-56
-44
-37
-35
-30
-23
-16
-14
-7
0
-4
-7
4
9
9
18
21
18
30
44
39
32
39
44
37
39
53
56
51
51
42
23
23
25
-2
-28
-11
32
63
53
42
46
35
23
39
46
35
39
51
39
18
16
-2
-49
0
363
1044
1497
948
-91
-253
117
37
-140
-65
-30
-70
-35
0
-28
-44
-23
-2
9
23
35
51
65
75
93
122
140
157
185
211
225
239
274
291
284
309
342
331
295
244
154
49
-37
-103
-157
-192
-199
-206
-218
-201
-192
-218
-223
-192
-176
-176
-164
-143
-133
-124
-115
-136
-152
-129
-105
-103
-96
-79
-75
-79
-70
-72
-86
-84
-65
-63
-68
-56
-32
-23
-28
-28
-18
-16
-14
-2
4
2
7
18
21
25
35
30
21
30
39
32
28
37
58
86
96
79
58
44
32
35
44
49
49
46
39
46
56
53
35
16
147
638
1291
1328
401
-335
-82
176
-30
-82
16
-30
-82
-30
-2
-16
-7
0
-4
9
32
49
56
56
63
79
98
119
136
157
185
213
241
269
302
326
335
342
347
316
232
119
28
-51
-122
-157
-171
-192
-208
-213
-223
-213
-190
-185
-187
-171
-145
-136
-131
-122
-107
-98
-91
-79
-72
-72
-65
-49
-42
-44
-44
-39
-35
-37
-53
-72
-75
-65
-63
-72
-82
-75
-75
-82
-75
-53
-44
-46
-39
-30
-30
-23
-4
2
-4
0
11
14
11
18
14
-2
2
32
58
79
86
77
72
68
61
58
56
44
32
39
49
58
61
32
-11
35
363
1025
1561
1126
77
-183
147
77
-96
-16
18
-30
-2
37
25
21
44
56
42
32
51
65
63
65
77
84
89
100
112
115
136
176
199
215
246
274
286
293
286
239
166
84
-4
-86
-140
-176
-197
-204
-194
-185
-187
-187
-171
-159
-164
-173
-171
-164
-150
-131
-119
-117
-107
-91
-89
-79
-63
-56
-56
-51
-42
-37
-32
-23
-16
-18
-16
-4
2
2
9
14
11
11
-2
-18
-18
-23
-30
-18
-7
2
9
7
9
21
28
28
30
32
28
21
16
23
35
53
72
61
42
46
39
16
21
42
39
37
46
51
49
39
9
-30
42
420
1105
1535
953
-25
-138
136
4
-107
-11
-2
-39
-11
7
7
28
42
42
53
63
72
91
110
117
124
143
152
129
117
140
164
178
213
255
272
281
295
300
281
244
183
96
0
-70
-117
-159
-185
-187
-192
-194
-183
-173
-171
-164
-161
-171
-176
-157
-140
-145
-150
-138
-122
-117
-110
-96
-91
-89
-79
-65
-58
-56
-51
-42
-37
-30
-21
-21
-21
-9
0
2
9
14
7
11
28
35
30
30
35
30
7
-23
-21
-4
-7
-11
0
7
11
14
7
0
14
30
46
72
72
58
58
56
44
46
56
53
51
61
63
53
51
53
14
28
361
1049
1488
894
-154
-284
110
35
-119
-30
-9
-51
-18
14
9
18
32
42
58
72
77
93
117
124
138
169
178
171
187
227
258
272
281
305
333
338
338
347
326
262
180
98
11
-82
-147
-180
-213
-232
-230
-232
-230
-218
-206
-192
-178
-164
-159
-159
-143
-119
-110
-105
-93
-100
-110
-98
-86
-84
-72
-65
-70
-61
-51
-56
-72
-79
-70
-58
-56
-49
-37
-30
-28
-18
-4
-7
-9
0
0
2
16
11
-4
0
32
58
61
53
49
46
21
-11
-7
2
-2
7
23
25
28
32
9
-21
105
579
1211
1232
316
-417
-147
161
2
-49
35
14
-4
32
44
35
37
49
68
77
86
98
107
124
150
171
185
199
211
232
262
291
321
342
349
363
387
375
338
300
225
115
21
-42
-96
-136
-159
-178
-194
-194
-192
-201
-211
-225
-244
-246
-225
-208
-211
-204
-180
-166
-161
-152
-140
-133
-126
-112
-100
-96
-98
-91
-79
-77
-72
-58
-53
-53
-42
-44
-63
-56
-42
-44
-39
-23
-14
-16
-14
-2
4
7
14
16
-2
-9
18
49
68
77
72
65
65
58
56
56
51
51
44
25
28
28
-11
-61
-32
230
833
1457
1241
187
-295
14
51
-154
-110
-32
-75
-68
-18
-16
-23
-7
14
23
32
49
58
68
84
107
124
136
152
166
171
194
234
262
279
305
333
345
345
335
291
201
105
30
-32
-89
-119
-131
-136
-133
-124
-124
-129
-117
-100
-100
-100
-103
-112
-119
-122
-133
-143
-140
-129
-122
-119
-107
-96
-100
-124
-143
-140
-145
-152
-138
-129
-129
-115
-98
-96
-89
-77
-70
-65
-51
-39
-35
-37
-30
-18
-14
-11
-16
-32
-35
-23
-25
-28
-14
11
37
49
53
58
49
30
32
44
44
46
53
49
49
61
53
7
14
279
887
1490
1256
239
-204
77
82
-115
-65
2
-42
-42
-4
2
11
28
30
18
4
14
42
56
63
82
100
103
107
138
164
171
199
248
277
293
319
338
333
319
272
183
86
4
-56
-93
-119
-147
-169
-178
-169
-150
-140
-140
-133
-129
-122
-110
-96
-89
-86
-84
-77
-75
-77
-75
-79
-96
-93
-79
-77
-82
-89
-103
-105
-93
-77
-70
-70
-72
-65
-56
-44
-30
-30
-58
-79
-68
-56
-56
-49
-42
-39
-25
-14
-21
-18
-4
-11
-35
-44
-35
-30
-25
-7
9
9
14
16
2
-2
16
28
16
11
23
30
35
46
18
-21
143
701
1366
1319
342
-316
-30
166
-32
-44
44
7
-7
35
32
21
35
46
51
61
75
91
112
131
138
152
183
208
225
239
244
253
284
326
359
382
399
408
401
354
272
173
70
-7
-51
-93
-136
-161
-176
-201
-218
-208
-197
-197
-187
-171
-159
-140
-119
-115
-122
-98
-72
-77
-77
-63
-68
-82
-84
-89
-98
-100
-96
-89
-86
-79
-65
-70
-86
-96
-86
-75
-70
-65
-63
-58
-46
-32
-30
-30
-25
-23
-35
-32
-14
-14
-14
16
23
9
11
9
-4
-2
14
23
23
21
21
37
46
4
-39
72
532
1195
1317
443
-359
-152
147
-37
-96
9
-14
-39
7
16
9
35
56
53
56
79
98
110
126
145
152
161
192
225
244
253
269
298
323
354
389
403
396
389
356
277
183
93
9
-46
-75
-93
-112
-136
-169
-190
-178
-157
-145
-143
-145
-133
-119
-117
-105
-89
-84
-93
-86
-75
-82
-96
-98
-103
-110
-100
-96
-103
-105
-98
-91
-86
-72
-70
-77
-70
-56
-65
-82
-77
-65
-63
-58
-44
-39
-42
-37
-25
-23
-25
-23
-16
-23
-28
-25
-25
-11
21
39
44
49
56
49
30
30
39
44
42
32
2
-11
7
7
-37
-32
213
798
1434
1298
295
-244
23
77
-122
-89
-14
-49
-49
-14
-11
-2
16
25
35
42
51
70
89
98
112
133
147
164
190
220
237
251
281
314
335
359
380
373
340
305
239
129
25
-35
-89
-138
-150
-147
-157
-159
-147
-140
-138
-129
-117
-119
-115
-98
-86
-96
-119
-133
-133
-136
-136
-126
-131
-136
-124
-119
-129
-124
-110
-110
-110
-93
-84
-82
-77
-70
-68
-61
-46
-39
-39
-37
-28
-23
-18
-4
0
-7
-2
11
16
14
21
23
16
21
25
9
-9
2
30
53
68
70
63
46
35
37
28
11
11
14
7
16
37
32
-16
-28
187
755
1427
1354
335
-281
-21
68
-138
-115
-32
-82
-96
-46
-32
-35
-18
-4
4
16
32
51
63
70
86
110
129
150
176
192
213
248
281
305
326
352
366
370
363
331
246
145
58
-21
-86
-115
-122
-140
-152
-140
-126
-126
-124
-115
-112
-119
-119
-117
-129
-136
-126
-124
-140
-140
-124
-122
-124
-119
-129
-145
-138
-122
-124
-117
-103
-107
-124
-124
-105
-96
-89
-75
-63
-61
-53
-39
-37
-37
-21
-14
-21
-11
9
11
2
0
14
30
30
35
39
32
28
25
25
42
70
70
49
56
79
61
30
35
46
49
56
63
63
56
61
58
9
14
321
976
1490
1077
37
-262
100
107
-68
-30
-14
-51
-25
-23
-42
-32
-28
-23
11
23
14
44
79
89
103
131
157
173
192
223
258
279
305
342
373
389
394
382
361
323
251
152
51
-28
-84
-119
-136
-159
-180
-180
-169
-164
-159
-152
-157
-171
-159
-138
-138
-138
-119
-105
-100
-98
-89
-86
-84
-79
-68
-68
-68
-53
-46
-56
-72
-84
-77
-65
-61
-79
-117
-129
-103
-89
-96
-86
-65
-58
-51
-37
-35
-39
-30
-16
-16
-23
-16
-2
11
39
70
68
49
42
39
37
39
51
51
46
46
42
32
23
-4
-18
194
784
1378
1136
107
-342
35
140
-56
-18
44
-7
0
49
46
42
65
75
70
86
110
117
117
105
96
110
131
140
147
164
190
220
241
258
274
281
272
272
274
239
164
77
0
-61
-103
-133
-154
-164
-164
-169
-176
-176
-176
-178
-171
-157
-143
-140
-138
-143
-150
-140
-122
-103
-103
-110
-100
-84
-77
-70
-63
-65
-65
-53
-39
-37
-37
-30
-25
-23
-14
-2
-2
-7
2
11
14
21
16
-14
-35
-30
-30
-32
-28
-25
-30
-37
-30
-9
7
28
46
49
44
44
37
25
30
44
51
44
37
39
30
4
-28
-21
197
770
1432
1326
314
-255
11
75
-131
-91
-11
-58
-51
-7
-11
-14
18
32
30
42
58
68
84
107
124
131
145
173
194
211
234
255
269
295
323
323
298
269
255
232
169
93
18
-53
-100
-122
-140
-152
-147
-145
-154
-152
-147
-152
-159
-154
-145
-145
-136
-119
-115
-119
-105
-89
-86
-79
-70
-84
-115
-124
-115
-107
-103
-96
-91
-84
-72
-58
-53
-51
-44
-35
-28
-18
-11
-14
-14
-2
7
9
14
21
21
28
37
42
35
25
18
18
25
37
42
39
39
42
35
18
16
28
32
32
42
51
49
42
35
2
0
244
847
1465
1281
279
-223
65
122
-75
-46
18
-18
-4
37
21
4
23
37
51
65
51
46
79
103
105
119
145
159
173
206
239
260
281
314
345
356
370
370
333
293
246
159
61
-4
-51
-103
-145
-171
-194
-204
-192
-178
-164
-157
-164
-173
-178
-183
-169
-154
-152
-138
-124
-124
-117
-100
-103
-112
-98
-82
-77
-77
-65
-51
-63
-70
-46
-32
-44
-56
-51
-39
-28
-18
-16
-18
-11
0
-2
-2
11
14
7
18
14
-23
-32
7
35
39
44
49
46
32
16
21
37
37
37
42
30
25
37
9
-53
16
441
1098
1272
448
-401
-234
124
-11
-89
9
2
-32
0
23
25
39
53
65
72
82
100
117
126
143
159
169
173
187
218
241
255
284
316
338
361
382
385
373
349
291
206
119
37
-32
-75
-103
-124
-136
-138
-138
-147
-154
-140
-131
-133
-126
-110
-105
-103
-93
-86
-100
-115
-124
-147
-164
-150
-140
-138
-131
-124
-122
-119
-112
-103
-98
-91
-82
-82
-84
-70
-51
-49
-51
-46
-39
-39
-30
-16
-18
-32
-37
-35
-30
-11
18
35
37
44
46
32
14
18
30
30
35
44
44
37
37
18
-21
72
507
1192
1474
744
-159
-122
166
4
-98
-11
-14
-46
-30
-30
-30
-4
-7
-28
-18
-2
2
21
46
63
75
93
110
131
159
187
204
220
248
279
295
309
323
316
288
244
169
72
0
-46
-86
-107
-105
-107
-126
-140
-131
-122
-119
-107
-98
-103
-100
-82
-70
-68
-58
-53
-53
-49
-46
-58
-72
-77
-82
-82
-77
-72
-82
-98
-93
-72
-70
-75
-65
-63
-65
-58
-63
-89
-100
-84
-79
-96
-100
-84
-75
-82
-79
-72
-70
-46
-14
2
0
7
16
4
-9
-7
-4
-21
-18
-4
-2
-7
0
-11
-51
39
462
1152
1493
812
-122
-138
136
-21
-119
-18
-14
-39
-7
2
0
23
39
42
53
61
68
86
93
86
98
124
140
157
185
213
234
248
267
291
298
293
305
302
267
223
157
70
-4
-61
-122
-178
-187
-171
-173
-173
-157
-150
-157
-157
-159
-173
-171
-150
-140
-136
-117
-105
-103
-93
-79
-70
-70
-63
-56
-70
-86
-84
-84
-93
-91
-79
-72
-70
-65
-61
-63
-58
-42
-28
-32
-42
-51
-61
-56
-32
-25
-35
-35
-18
-16
-28
-25
-11
11
28
14
-9
0
0
-14
-11
2
9
9
2
9
28
32
16
-21
0
319
997
1453
871
-166
-298
77
9
-129
-39
-25
-77
-30
11
-4
2
37
44
37
58
96
107
105
122
150
166
183
213
234
246
281
319
335
354
368
375
387
392
366
314
232
124
35
-21
-70
-107
-122
-122
-136
-159
-169
-154
-143
-143
-140
-136
-129
-112
-100
-100
-93
-79
-75
-68
-65
-68
-77
-86
-84
-65
-68
-100
-124
-119
-117
-122
-115
-110
-107
-103
-100
-91
-79
-77
-75
-61
-56
-58
-61
-63
-56
-25
9
23
18
16
18
2
-21
-25
-18
-21
-14
0
4
9
16
-4
-37
70
523
1173
1277
392
-427
-220
129
-16
-91
7
-4
-32
11
30
21
37
61
70
79
93
98
89
93
122
152
166
183
208
230
246
279
316
340
354
377
406
399
356
314
244
138
51
-9
-63
-98
-115
-126
-133
-126
-110
-105
-112
-117
-112
-103
-91
-79
-70
-63
-51
-51
-61
-58
-49
-46
-51
-49
-44
-46
-58
-77
-84
-82
-79
-70
-63
-68
-72
-68
-79
-96
-93
-84
-86
-96
-98
-96
-93
-86
-75
-70
-65
-68
-77
-68
-32
2
11
4
4
4
-7
-7
2
2
2
9
2
-14
-4
-2
-53
-63
194
809
1425
1199
150
-328
11
79
-124
-91
-23
-61
-51
-7
0
0
11
23
39
51
63
82
89
75
75
107
138
147
164
192
218
244
279
312
326
333
342
347
331
288
215
122
46
-7
-49
-84
-98
-100
-100
-93
-82
-79
-84
-72
-58
-53
-46
-42
-42
-37
-30
-35
-42
-32
-25
-28
-25
-30
-35
-32
-39
-37
-30
-49
-63
-53
-65
-100
-100
-89
-105
-115
-110
-105
-100
-89
-79
-84
-105
-124
-117
-103
-96
-91
-91
-91
-89
-82
-68
-56
-35
-14
-14
-11
-4
-18
-30
-16
-2
0
4
14
9
7
14
-9
-35
124
638
1338
1455
558
-201
-28
140
-63
-89
4
-21
-32
0
-7
-9
18
30
30
46
58
70
89
105
115
129
150
157
154
178
211
227
248
286
314
331
345
326
286
255
211
126
32
-35
-77
-110
-140
-145
-140
-147
-145
-124
-115
-110
-98
-91
-93
-89
-84
-86
-84
-79
-70
-63
-61
-53
-46
-46
-46
-35
-28
-28
-23
-28
-42
-49
-51
-63
-77
-77
-72
-70
-65
-56
-56
-56
-51
-44
-42
-37
-28
-25
-25
-16
-7
-11
-14
-14
-23
-42
-46
-35
-39
-58
-49
-2
14
0
2
-7
-39
-32
-2
0
-4
2
9
11
16
7
-42
-16
298
953
1507
1138
96
-237
89
68
-112
-44
2
-44
-30
7
4
14
28
30
42
58
58
68
93
100
107
143
173
183
194
218
244
274
312
338
354
375
396
394
366
326
260
154
56
0
-46
-91
-136
-178
-194
-190
-178
-183
-211
-211
-185
-173
-166
-147
-143
-145
-129
-105
-98
-96
-79
-70
-75
-75
-75
-84
-96
-100
-103
-98
-89
-84
-89
-84
-77
-77
-72
-61
-56
-65
-77
-63
-49
-49
-46
-39
-42
-37
-23
-14
-21
-23
-21
-23
-21
4
37
51
44
44
49
28
11
21
25
28
32
16
-14
-16
-2
-32
-84
21
478
1131
1241
375
-436
-244
96
-44
-115
-21
-30
-49
-14
-7
-4
23
35
37
58
77
82
96
117
131
145
161
180
201
227
239
241
260
295
326
349
368
382
370
331
269
185
84
7
-49
-103
-140
-145
-143
-150
-150
-140
-131
-122
-107
-100
-103
-96
-75
-72
-98
-119
-133
-152
-154
-138
-136
-143
-138
-122
-117
-119
-103
-93
-103
-100
-84
-91
-105
-98
-91
-93
-79
-61
-56
-56
-49
-39
-37
-35
-18
-7
-16
-18
-18
-32
-32
-30
-35
-30
-2
32
51
46
42
44
32
25
37
39
30
32
46
49
51
51
4
-30
150
699
1373
1396
457
-246
-25
122
-119
-152
-61
-89
-91
-44
-37
-35
-14
-4
7
25
37
49
63
72
89
115
138
150
164
185
215
237
262
291
295
291
309
333
321
277
199
96
9
-44
-89
-133
-157
-159
-154
-154
-145
-136
-138
-133
-107
-98
-110
-117
-117
-126
-129
-112
-98
-103
-103
-91
-82
-82
-75
-68
-75
-79
-93
-126
-138
-115
-110
-112
-100
-82
-77
-75
-68
-56
-49
-42
-28
-25
-32
-25
-9
-4
-4
4
7
4
9
18
16
0
0
18
42
63
63
44
32
25
18
7
-2
4
7
2
11
28
28
0
-37
30
401
1082
1530
962
-39
-161
143
14
-122
-21
-11
-61
-21
16
2
4
9
-4
-14
-2
18
28
32
56
82
98
119
145
159
176
208
244
265
284
305
319
328
326
302
246
166
84
11
-46
-86
-110
-129
-145
-154
-154
-150
-140
-136
-138
-143
-140
-140
-152
-157
-143
-145
-161
-150
-131
-136
-136
-115
-105
-107
-98
-89
-91
-86
-70
-61
-63
-61
-51
-44
-44
-51
-53
-53
-63
-82
-86
-70
-53
-56
-58
-46
-30
-25
-28
-21
-9
0
2
9
14
2
-4
2
14
28
61
82
72
70
77
63
37
28
30
30
35
44
51
46
42
14
-11
150
673
1357
1429
525
-197
-7
152
-53
-84
-9
-46
-49
-9
-18
-18
16
23
16
37
58
61
63
79
100
110
107
103
112
145
176
187
204
237
272
288
298
302
286
253
208
138
56
-14
-68
-112
-136
-136
-133
-143
-145
-129
-107
-112
-138
-152
-154
-157
-143
-126
-129
-122
-110
-103
-96
-89
-82
-82
-84
-75
-61
-63
-58
-51
-53
-51
-37
-35
-32
-25
-25
-39
-53
-44
-23
-25
-39
-37
-28
-25
-21
-11
-14
-35
-46
-32
-21
-16
-14
-18
-11
0
-2
-14
-11
9
37
70
79
63
53
49
49
46
42
51
61
49
35
44
56
30
-21
51
455
1129
1403
652
-281
-215
161
46
-61
37
30
-16
28
63
46
51
75
84
82
96
117
126
124
136
161
176
178
192
204
194
199
223
246
255
251
251
267
274
260
211
129
46
-18
-82
-131
-157
-180
-208
-208
-201
-211
-208
-194
-192
-187
-171
-150
-147
-159
-145
-122
-122
-119
-100
-96
-103
-86
-70
-72
-72
-65
-65
-65
-51
-35
-37
-42
-35
-28
-23
-11
-7
-11
-7
4
11
11
18
21
14
4
9
21
23
18
21
28
30
32
11
-30
-32
-4
14
39
61
46
21
7
4
4
4
4
14
21
23
35
44
25
-23
-14
241
849
1436
1157
119
-291
63
110
-91
-49
16
-30
-23
23
23
16
37
53
58
70
86
91
100
119
136
152
164
171
176
185
199
223
237
239
255
284
298
298
295
262
194
122
51
-37
-124
-166
-185
-208
-211
-199
-197
-199
-187
-173
-166
-157
-145
-157
-171
-154
-133
-133
-131
-117
-122
-129
-112
-91
-96
-100
-84
-72
-72
-61
-49
-56
-56
-35
-18
-21
-21
-11
-9
-9
0
7
7
9
18
23
25
30
37
35
30
39
42
28
25
35
30
21
21
30
42
65
89
86
63
39
30
25
23
32
39
37
37
44
44
37
7
-14
140
647
1342
1450
556
-206
-49
91
-124
-131
-35
-72
-79
-30
-32
-39
-4
14
9
18
39
53
68
89
100
96
103
131
152
164
185
204
220
241
269
288
295
293
279
244
192
117
21
-70
-138
-176
-187
-197
-204
-208
-215
-227
-232
-213
-201
-201
-192
-180
-169
-150
-138
-136
-119
-100
-96
-93
-84
-82
-77
-70
-72
-82
-75
-63
-65
-65
-49
-35
-35
-35
-28
-25
-37
-39
-28
-30
-35
-21
-4
-2
0
4
7
11
23
30
25
21
30
30
18
18
16
0
21
70
75
61
65
49
25
32
51
58
63
58
46
25
4
-14
-42
30
455
1162
1429
659
-255
-185
143
7
-77
18
2
-42
-14
0
-2
21
35
32
46
70
84
96
115
136
145
150
157
173
192
211
237
251
258
286
319
323
323
335
323
265
178
82
-16
-93
-147
-197
-223
-227
-227
-227
-218
-204
-197
-192
-173
-152
-145
-138
-124
-112
-117
-126
-122
-107
-107
-110
-103
-91
-77
-65
-65
-68
-58
-44
-42
-44
-51
-63
-61
-49
-37
-28
-25
-21
-11
-2
2
9
9
7
18
25
25
28
30
16
9
30
56
75
84
82
68
44
28
28
16
-14
-21
-14
-14
-7
7
-2
-46
-39
220
833
1415
1133
100
-307
49
103
-91
-53
-4
-75
-77
-25
-21
-28
-4
14
23
35
51
65
75
86
93
98
112
136
159
180
199
227
251
258
269
298
314
312
302
267
194
112
42
-18
-65
-93
-105
-117
-129
-133
-138
-147
-150
-138
-133
-138
-147
-150
-145
-133
-117
-107
-107
-107
-105
-115
-122
-103
-91
-103
-98
-79
-75
-72
-61
-65
-89
-91
-65
-58
-63
-53
-42
-37
-28
-14
-11
-25
-32
-25
-21
-16
-7
-4
-4
0
-2
-9
0
23
51
68
72
75
65
44
42
58
61
61
68
61
56
70
68
21
14
251
842
1490
1338
309
-225
56
117
-79
-49
18
-18
-21
11
18
28
44
51
53
51
46
61
86
91
82
77
86
112
138
161
180
204
239
272
291
293
288
286
274
244
185
93
9
-49
-93
-126
-136
-140
-150
-145
-126
-122
-129
-129
-129
-138
-145
-138
-124
-126
-126
-112
-103
-98
-79
-65
-82
-93
-82
-77
-82
-72
-68
-72
-63
-53
-51
-51
-44
-35
-30
-23
-16
-14
-9
-2
2
0
0
2
-25
-63
-61
-37
-35
-39
-46
-44
-39
-39
-16
25
25
11
28
30
11
7
16
21
28
32
37
42
32
7
-18
112
601
1281
1396
511
-284
-96
169
-7
-68
21
9
-9
28
28
14
30
46
65
86
91
89
105
126
145
166
187
199
206
237
272
293
321
352
368
387
415
427
403
338
258
171
58
-37
-86
-133
-187
-204
-208
-223
-218
-204
-208
-204
-171
-150
-152
-150
-140
-140
-140
-138
-133
-136
-138
-129
-115
-115
-110
-105
-110
-107
-91
-77
-79
-84
-77
-72
-77
-68
-51
-53
-56
-42
-37
-37
-23
-21
-30
-28
-23
-21
-11
18
49
51
42
46
39
14
16
37
39
35
28
2
-14
-2
0
-35
4
366
1033
1314
582
-345
-288
105
16
-89
-9
-21
-56
-21
-4
-2
25
39
39
56
68
75
98
122
124
136
166
190
201
225
253
267
279
307
345
368
380
380
373
338
274
187
91
9
-51
-89
-105
-112
-115
-115
-115
-110
-96
-96
-110
-107
-96
-91
-82
-70
-89
-110
-96
-79
-96
-93
-77
-79
-86
-82
-84
-96
-98
-107
-112
-100
-89
-93
-100
-96
-89
-96
-107
-96
-82
-93
-91
-72
-63
-63
-56
-49
-53
-58
-53
-42
-25
-7
4
2
7
14
0
-11
-7
4
7
7
14
16
14
0
-35
11
361
1035
1490
950
-61
-208
131
32
-115
-18
2
-56
-51
-51
-77
-58
-23
-14
-11
2
18
35
56
82
98
105
124
152
173
199
227
246
265
295
328
345
349
352
331
272
192
112
32
-35
-68
-105
-159
-173
-154
-157
-161
-138
-117
-115
-110
-105
-117
-119
-98
-84
-89
-89
-70
-61
-61
-53
-46
-51
-51
-37
-30
-35
-44
-53
-61
-70
-84
-117
-138
-131
-115
-107
-105
-93
-84
-89
-84
-70
-61
-58
-51
-46
-42
-37
-30
-28
-37
-42
-28
-4
18
44
49
35
23
23
21
21
23
14
0
2
16
21
9
-28
-44
136
662
1359
1403
439
-265
-37
100
-115
-115
-25
-70
-72
-16
-9
-14
4
18
23
39
61
72
77
89
91
70
72
107
129
140
173
211
234
255
284
307
321
331
331
295
215
131
63
0
-46
-72
-96
-110
-100
-89
-91
-91
-82
-75
-70
-72
-84
-98
-98
-89
-82
-75
-65
-58
-63
-58
-42
-32
-39
-39
-32
-44
-77
-86
-77
-89
-107
-96
-86
-86
-82
-70
-72
-75
-63
-51
-51
-51
-61
-79
-93
-91
-77
-75
-77
-65
-51
-46
-37
-39
-56
-56
-25
7
30
39
37
30
25
23
28
35
32
35
39
39
46
56
30
-23
21
370
1049
1530
1004
-14
-180
133
32
-115
-28
-7
-53
-28
7
7
16
30
37
49
65
79
84
70
68
96
122
131
150
176
197
215
230
246
262
267
265
277
284
272
237
157
65
-2
-58
-100
-122
-126
-129
-131
-129
-119
-110
-110
-117
-117
-103
-91
-84
-84
-75
-65
-63
-58
-61
-75
-70
-51
-42
-56
-75
-75
-63
-72
-82
-77
-79
-84
-68
-51
-46
-44
-49
-58
-46
-25
-18
-25
-23
-14
-7
-7
-4
2
-11
-42
-44
-39
-46
-53
-77
-100
-79
-39
-9
0
-7
-9
-2
0
4
4
2
7
16
23
30
35
23
-16
-11
258
892
1399
971
-79
-375
51
115
-63
-23
21
-11
9
42
42
49
61
68
86
110
112
117
133
152
169
185
199
213
237
265
293
314
338
366
380
396
415
427
410
345
248
152
58
-23
-82
-138
-178
-180
-185
-204
-197
-180
-178
-166
-143
-138
-133
-117
-107
-112
-110
-110
-119
-119
-107
-100
-105
-103
-89
-79
-89
-96
-91
-82
-79
-77
-70
-63
-58
-49
-39
-42
-37
-25
-21
-18
-11
-9
-11
0
18
18
7
9
11
7
7
23
39
58
79
84
75
58
39
30
35
42
46
42
18
-2
4
7
-30
-37
185
767
1387
1206
190
-314
21
103
-124
-91
-7
-56
-53
-9
-11
-11
18
37
37
32
42
58
70
91
112
122
136
164
185
201
225
248
265
286
319
345
342
338
331
293
213
122
44
-23
-72
-98
-119
-131
-124
-119
-126
-133
-124
-110
-112
-112
-107
-110
-117
-124
-147
-171
-157
-136
-136
-131
-117
-115
-119
-107
-93
-89
-93
-89
-75
-72
-70
-53
-44
-51
-44
-30
-32
-39
-35
-39
-61
-61
-37
-30
-35
-32
-25
-18
-11
-2
-7
-23
-21
4
30
56
68
56
46
46
42
42
46
46
49
49
53
61
56
23
-21
44
399
1072
1556
1033
0
-171
147
37
-136
-65
-37
-75
-39
-2
-9
-9
14
28
37
53
68
72
84
107
126
140
159
176
183
194
225
253
269
284
307
319
309
302
293
234
138
61
0
-63
-105
-129
-145
-154
-145
-136
-136
-136
-124
-112
-112
-112
-119
-129
-133
-131
-133
-138
-133
-126
-124
-112
-100
-100
-103
-93
-84
-79
-79
-86
-112
-124
-105
-89
-86
-77
-65
-63
-63
-53
-39
-30
-28
-30
-25
-18
-14
-2
0
-16
-18
-7
-16
-23
-2
18
32
53
61
56
51
39
25
14
7
11
14
7
21
37
25
-16
-28
173
723
1387
1357
392
-248
2
117
-110
-107
-11
-53
-65
-9
0
-7
16
32
28
35
56
75
82
77
82
100
122
147
176
190
206
237
269
302
328
340
345
352
352
302
211
117
28
-61
-119
-138
-154
-173
-185
-176
-159
-152
-145
-138
-133
-131
-119
-107
-107
-107
-115
-138
-164
-159
-140
-136
-143
-145
-136
-124
-117
-124
-140
-136
-117
-112
-112
-98
-89
-91
-82
-65
-61
-61
-53
-42
-37
-37
-37
-58
-84
-72
-58
-61
-49
-18
11
18
16
23
21
-2
-14
-14
-14
-11
2
7
0
11
16
-25
-23
251
873
1364
929
-98
-363
58
107
-58
-7
39
2
16
42
39
51
70
79
96
93
75
82
96
89
96
129
150
161
190
225
241
260
293
326
340
359
380
377
347
298
211
86
-14
-61
-96
-129
-143
-136
-133
-140
-145
-145
-138
-126
-129
-143
-136
-115
-103
-96
-86
-82
-79
-68
-51
-49
-65
-82
-82
-84
-93
-84
-77
-86
-86
-75
-70
-72
-68
-65
-63
-58
-44
-35
-37
-44
-49
-58
-51
-35
-30
-39
-37
-28
-28
-23
-4
18
16
2
9
16
-7
-18
-2
4
-9
-25
-35
-30
-21
-21
-58
-49
225
847
1441
1169
126
-298
23
46
-145
-96
-30
-68
-51
-18
-18
-7
14
23
35
51
56
72
96
112
119
136
157
176
199
227
248
262
288
319
338
347
347
331
305
269
206
122
37
-18
-56
-84
-96
-91
-93
-100
-89
-79
-89
-96
-91
-100
-124
-122
-117
-145
-145
-117
-110
-107
-96
-82
-79
-91
-105
-112
-115
-119
-122
-126
-129
-117
-100
-96
-96
-89
-84
-82
-72
-56
-53
-56
-44
-37
-37
-28
-14
-21
-30
-21
-23
-32
-14
21
37
32
21
21
14
-7
-4
11
11
16
25
21
23
39
21
-35
21
387
1065
1523
983
-32
-192
129
39
-105
-39
-32
-86
-82
-61
-44
-25
-21
-25
-23
-11
4
28
49
70
89
110
129
150
183
213
234
265
300
323
342
366
380
375
345
286
197
98
21
-39
-86
-100
-93
-110
-136
-138
-129
-122
-112
-105
-107
-110
-105
-93
-84
-82
-77
-72
-68
-56
-42
-46
-51
-39
-32
-37
-35
-44
-65
-82
-107
-126
-115
-107
-115
-100
-89
-103
-107
-98
-98
-96
-89
-93
-100
-93
-100
-112
-93
-61
-37
-18
-14
-18
-14
-7
-16
-25
-16
-4
2
2
7
11
9
-7
-37
11
354
995
1349
713
-281
-335
98
49
-93
0
23
-30
7
46
30
32
65
79
82
93
107
115
124
147
173
185
192
194
190
211
258
288
302
314
338
366
373
366
335
260
157
72
2
-65
-110
-136
-164
-176
-164
-154
-154
-145
-126
-119
-110
-98
-93
-89
-75
-63
-63
-65
-63
-58
-61
-68
-65
-58
-68
-68
-51
-49
-51
-44
-39
-44
-42
-44
-56
-72
-84
-75
-65
-68
-63
-61
-65
-61
-46
-49
-51
-49
-63
-82
-77
-39
-14
-32
-46
-37
-44
-56
-44
-37
-44
-32
-21
-18
-14
-9
-35
-75
37
500
1199
1439
636
-255
-171
103
-63
-143
-53
-61
-82
-42
-23
-21
-9
-4
4
18
30
42
58
70
84
112
136
147
164
194
223
246
274
305
323
338
359
375
363
323
251
157
70
7
-39
-86
-131
-157
-164
-166
-161
-150
-147
-140
-119
-107
-103
-91
-84
-84
-75
-70
-79
-77
-68
-63
-63
-61
-46
-42
-49
-44
-30
-28
-28
-21
-25
-42
-49
-46
-61
-86
-86
-84
-96
-103
-89
-86
-96
-86
-72
-70
-68
-56
-58
-68
-70
-58
-44
-25
0
18
16
16
21
7
-7
2
16
14
14
11
-21
-46
-44
-75
-61
234
887
1472
1136
96
-246
63
25
-145
-65
-23
-68
-42
-11
-16
0
25
28
35
49
56
72
98
117
124
131
152
171
178
206
241
253
265
302
342
361
363
356
321
244
159
84
0
-72
-103
-117
-133
-136
-129
-136
-133
-115
-107
-105
-91
-89
-96
-86
-75
-91
-119
-117
-96
-93
-93
-77
-72
-82
-72
-63
-61
-58
-49
-44
-53
-72
-70
-68
-77
-82
-79
-79
-75
-58
-51
-63
-61
-42
-37
-42
-42
-49
-63
-61
-51
-46
-39
-35
-44
-46
-28
2
25
30
21
23
28
18
11
7
-9
-18
-4
2
-4
2
2
-42
-16
356
1061
1441
791
-225
-321
49
-25
-164
-77
-49
-79
-46
-23
-35
-16
11
16
28
53
61
70
96
117
136
164
173
176
211
258
281
305
338
359
387
413
408
380
340
277
185
79
-4
-61
-107
-140
-150
-152
-154
-147
-136
-131
-129
-115
-110
-122
-117
-96
-89
-89
-79
-68
-79
-93
-84
-70
-72
-77
-89
-110
-112
-122
-157
-176
-169
-159
-157
-143
-126
-126
-131
-126
-107
-96
-89
-79
-77
-79
-72
-53
-37
-37
-51
-58
-51
-32
-2
25
28
16
9
-2
-16
-14
-7
-7
2
18
18
14
21
14
-28
-9
307
962
1441
971
-49
-281
100
89
-79
-14
30
-7
9
32
28
37
56
58
53
51
58
70
72
49
39
70
100
115
143
178
206
234
267
295
316
340
361
361
323
267
192
98
16
-32
-75
-110
-117
-107
-110
-117
-126
-140
-147
-138
-126
-122
-117
-105
-98
-91
-70
-58
-68
-65
-46
-37
-42
-39
-44
-56
-68
-75
-77
-72
-70
-72
-68
-63
-53
-49
-53
-56
-58
-63
-63
-56
-49
-46
-53
-68
-65
-58
-61
-51
-49
-70
-68
-61
-75
-70
-35
0
16
18
18
16
14
11
16
21
18
21
28
25
21
11
-23
-53
100
603
1305
1474
610
-204
-61
145
-58
-103
-4
-28
-49
-2
14
7
18
37
51
61
68
82
93
100
119
143
159
166
166
178
204
234
265
293
312
316
312
307
307
281
211
122
44
-16
-68
-100
-126
-147
-154
-147
-136
-136
-138
-129
-122
-136
-140
-126
-124
-131
-131
-124
-119
-129
-133
-131
-133
-129
-117
-119
-126
-115
-103
-100
-93
-82
-84
-84
-70
-61
-61
-56
-46
-42
-39
-28
-18
-18
-18
-9
0
0
-7
-9
-7
-7
4
11
2
-9
-7
-4
-7
14
42
42
30
28
23
21
30
35
28
28
42
46
46
42
2
-2
237
833
1479
1324
293
-241
25
61
-136
-93
-35
-82
-61
-14
-16
-11
9
7
16
46
56
53
75
105
112
119
161
201
204
213
248
274
300
338
363
370
373
373
361
321
239
136
49
-18
-82
-126
-159
-190
-192
-178
-173
-164
-166
-171
-145
-124
-131
-129
-110
-112
-126
-122
-115
-126
-129
-115
-105
-110
-117
-119
-122
-124
-110
-96
-96
-93
-91
-98
-112
-112
-98
-91
-89
-75
-68
-75
-63
-46
-46
-49
-32
-21
-23
-23
-18
-23
-23
-14
0
4
14
35
44
37
37
30
16
18
32
35
25
21
2
-9
-7
-23
-42
107
619
1256
1190
213
-406
-70
143
-51
-56
32
-7
-14
30
21
4
30
51
51
56
72
84
96
122
138
138
152
183
201
211
234
255
255
262
293
319
328
333
326
291
227
152
68
-7
-56
-91
-129
-152
-152
-140
-140
-138
-126
-117
-115
-110
-98
-89
-82
-82
-107
-138
-133
-119
-131
-136
-122
-119
-126
-119
-103
-100
-103
-96
-91
-89
-79
-65
-70
-86
-77
-58
-56
-56
-46
-46
-51
-39
-23
-25
-30
-25
-21
-18
-14
-9
-23
-35
-14
21
39
44
44
23
-9
-14
0
-2
-9
-2
-4
-11
-2
7
-21
-68
11
401
1077
1507
932
-49
-164
124
2
-136
-70
-65
-96
-58
-28
-25
-18
-4
7
23
32
46
65
75
86
107
119
122
140
166
185
206
239
267
284
298
319
331
326
309
262
178
86
9
-53
-96
-117
-129
-140
-140
-129
-122
-122
-119
-110
-98
-96
-89
-96
-124
-129
-117
-138
-164
-154
-145
-152
-140
-119
-119
-122
-112
-100
-100
-119
-138
-136
-124
-117
-105
-100
-91
-77
-70
-70
-61
-46
-42
-39
-32
-35
-46
-42
-32
-44
-51
-28
7
25
37
42
35
23
18
21
21
25
35
39
37
42
44
25
-18
37
401
1058
1497
962
-37
-192
138
37
-124
-42
-11
-53
-28
4
0
2
25
51
63
65
82
98
86
72
91
98
86
110
154
183
201
230
265
293
307
326
345
345
323
262
143
28
-30
-75
-124
-157
-178
-197
-192
-171
-164
-171
-161
-140
-131
-133
-126
-103
-91
-93
-79
-68
-70
-70
-72
-89
-105
-100
-86
-89
-96
-107
-119
-112
-91
-84
-91
-84
-72
-68
-61
-51
-53
-58
-39
-21
-23
-32
-32
-32
-51
-51
-9
16
4
2
7
-16
-44
-35
-23
-35
-30
-23
-37
-37
-21
-35
-68
51
530
1169
1199
288
-448
-185
131
-16
-72
9
-4
-16
18
30
30
49
63
75
91
100
103
115
136
154
171
176
169
183
220
253
272
291
319
352
368
382
394
375
323
253
164
68
2
-39
-84
-129
-147
-140
-136
-136
-124
-112
-107
-93
-79
-84
-100
-117
-129
-133
-131
-117
-115
-115
-103
-91
-89
-82
-79
-82
-75
-61
-61
-75
-86
-89
-96
-93
-84
-79
-82
-77
-65
-58
-58
-53
-49
-51
-56
-65
-77
-72
-53
-28
0
7
7
4
-11
-21
-7
0
0
7
14
9
14
21
-4
-46
49
493
1185
1403
593
-255
-145
105
-65
-126
-32
-58
-100
-65
-42
-30
-7
0
2
14
9
9
35
53
53
77
110
124
140
171
192
211
241
274
298
316
331
338
331
298
239
150
51
-28
-75
-103
-117
-119
-124
-126
-115
-100
-93
-91
-84
-77
-70
-58
-46
-42
-42
-32
-21
-25
-37
-56
-82
-89
-72
-65
-68
-61
-56
-53
-58
-68
-68
-63
-63
-65
-68
-70
-75
-79
-86
-84
-70
-63
-63
-61
-63
-79
-93
-91
-86
-82
-61
-25
-7
-7
-2
-2
-21
-28
-7
4
0
-9
-14
-9
0
0
-30
-51
136
690
1373
1366
410
-241
-11
110
-84
-79
2
-32
-44
-7
2
9
32
30
9
16
37
51
70
96
100
98
115
143
164
192
225
246
267
298
326
345
352
356
345
295
225
140
51
-11
-44
-77
-98
-98
-115
-140
-133
-112
-112
-119
-107
-91
-84
-86
-82
-75
-75
-68
-46
-37
-35
-32
-42
-49
-37
-28
-35
-35
-28
-28
-30
-21
-11
-14
-18
-9
-4
-9
-18
-42
-84
-100
-91
-79
-82
-98
-103
-89
-82
-72
-61
-61
-70
-68
-68
-70
-58
-39
-18
2
18
21
16
9
0
-2
-4
2
18
25
25
30
23
-7
-32
98
558
1239
1436
615
-234
-112
138
-70
-154
-35
-35
-82
-51
-21
-21
-7
14
23
30
49
70
84
98
117
133
152
173
197
223
241
241
258
295
312
323
347
354
347
323
248
143
61
-4
-68
-105
-119
-131
-136
-133
-133
-136
-122
-105
-103
-103
-89
-75
-70
-56
-44
-58
-72
-58
-37
-44
-63
-61
-58
-65
-58
-42
-39
-44
-39
-32
-32
-39
-53
-79
-105
-100
-82
-86
-91
-82
-75
-77
-75
-63
-61
-63
-51
-39
-42
-58
-84
-115
-115
-84
-46
-25
-28
-28
-28
-42
-42
-23
-18
-21
-16
-7
-4
7
16
-11
-58
49
509
1176
1324
471
-361
-176
159
4
-79
11
2
-25
4
18
16
25
39
56
70
79
93
107
112
126
152
173
185
199
223
246
265
295
326
323
323
352
370
352
314
248
147
56
-21
-103
-166
-180
-178
-185
-178
-159
-152
-157
-154
-150
-145
-133
-119
-115
-112
-96
-79
-77
-75
-72
-70
-65
-58
-49
-51
-68
-75
-77
-86
-86
-79
-91
-105
-91
-79
-82
-77
-68
-65
-63
-53
-44
-44
-49
-39
-28
-28
-25
-16
-16
-16
-4
0
-4
-14
-18
-16
0
25
58
61
44
44
35
-7
-35
-25
-32
-56
-46
-25
-25
-25
-30
-72
-58
239
892
1474
1136
93
-253
68
49
-131
-75
-28
-63
-39
-11
-18
-7
14
18
30
35
21
30
61
79
86
110
133
147
164
194
223
244
272
298
314
331
349
354
331
281
211
126
46
-14
-65
-115
-133
-126
-129
-131
-129
-140
-154
-152
-157
-176
-171
-152
-147
-161
-180
-173
-166
-176
-171
-150
-145
-145
-129
-126
-131
-122
-105
-105
-105
-98
-93
-86
-79
-70
-65
-65
-58
-58
-70
-63
-46
-46
-46
-32
-18
-18
-18
-11
-7
-2
9
18
18
14
16
25
21
16
21
28
46
84
96
84
77
75
65
61
61
51
37
37
39
16
-9
-9
-42
-51
208
845
1467
1232
199
-269
25
49
-143
-91
-37
-86
-63
-18
-25
-14
14
14
21
46
61
63
75
82
86
112
145
166
180
192
225
265
284
305
331
335
335
354
356
305
215
124
42
-30
-86
-115
-131
-147
-150
-145
-161
-164
-159
-176
-183
-173
-176
-171
-152
-145
-145
-152
-157
-150
-140
-131
-124
-117
-105
-93
-89
-93
-91
-75
-65
-63
-53
-51
-56
-51
-37
-23
-23
-25
-23
-37
-58
-56
-53
-61
-53
-39
-32
-23
-14
-9
-7
-7
-2
2
0
-4
7
44
77
79
61
56
63
58
46
51
58
53
51
61
72
75
53
-2
-14
248
878
1399
986
-68
-382
18
72
-93
-44
-7
-49
-23
21
18
21
37
44
56
79
91
96
105
124
145
157
173
204
225
234
244
258
277
291
309
319
309
309
305
255
169
75
-4
-68
-107
-133
-159
-173
-173
-183
-192
-194
-194
-187
-171
-154
-152
-150
-143
-126
-117
-115
-119
-122
-119
-112
-98
-91
-89
-86
-98
-129
-129
-98
-89
-93
-86
-72
-68
-65
-49
-37
-42
-42
-25
-16
-18
-14
-4
-9
-11
4
14
2
-11
-11
0
4
4
7
2
-7
-2
14
35
58
63
37
28
44
35
14
16
25
25
28
39
39
32
37
32
-16
-9
260
882
1490
1232
185
-255
61
77
-126
-75
-7
-46
-44
-32
-53
-37
-11
0
14
23
25
46
75
86
91
103
112
126
152
178
192
208
237
269
288
293
302
305
286
253
199
112
14
-63
-119
-161
-178
-180
-187
-190
-180
-173
-171
-157
-154
-173
-183
-161
-154
-173
-166
-147
-145
-138
-119
-103
-105
-112
-105
-89
-86
-82
-68
-65
-65
-53
-44
-42
-42
-63
-84
-75
-51
-44
-42
-39
-30
-23
-14
-4
0
-4
0
11
11
9
18
21
16
9
16
21
4
-7
7
37
68
79
75
68
65
61
56
61
65
61
53
63
79
86
68
18
4
197
737
1425
1453
495
-197
25
150
-77
-79
0
-68
-82
-23
-28
-37
-2
9
7
28
51
37
16
25
46
58
79
107
122
136
171
204
227
253
279
298
314
323
323
286
194
98
9
-77
-131
-157
-187
-197
-187
-194
-194
-180
-171
-169
-159
-147
-133
-129
-124
-110
-100
-96
-77
-61
-63
-65
-56
-46
-42
-42
-44
-44
-42
-32
-25
-30
-35
-30
-35
-49
-42
-28
-35
-37
-21
-9
-18
-37
-42
-30
-23
-21
-16
-9
-2
7
9
4
7
7
0
11
46
65
51
42
49
44
28
35
49
44
35
42
44
39
53
44
-7
32
389
1040
1408
795
-201
-288
131
89
-58
18
39
-4
21
46
42
44
44
46
68
82
86
98
112
122
138
164
180
187
194
213
241
260
265
260
272
300
312
293
258
213
131
30
-44
-105
-166
-211
-232
-251
-260
-246
-230
-227
-220
-206
-192
-180
-161
-150
-154
-145
-117
-105
-107
-93
-82
-82
-82
-68
-56
-61
-61
-49
-42
-44
-35
-23
-32
-32
-18
-25
-44
-39
-28
-28
-23
-9
-2
-4
-4
4
9
11
18
23
14
11
23
16
-18
-28
-4
21
37
44
46
42
28
18
9
-7
-9
-16
-37
-35
-11
-11
-37
-70
-4
366
1051
1483
899
-100
-206
115
-4
-136
-37
-21
-68
-35
-2
-4
9
28
28
32
53
68
77
86
96
100
100
119
152
171
171
180
211
237
255
281
298
298
298
288
239
154
68
-4
-61
-107
-161
-211
-227
-225
-232
-227
-211
-201
-204
-199
-185
-185
-194
-187
-176
-171
-176
-171
-152
-150
-152
-143
-136
-122
-91
-70
-82
-89
-70
-56
-58
-53
-46
-44
-37
-28
-18
-18
-21
-11
0
0
2
-2
-21
-23
-7
2
2
7
9
7
9
16
9
-2
11
39
63
75
75
75
63
44
46
35
4
4
18
16
18
32
30
-11
-37
136
662
1338
1352
406
-258
-32
98
-100
-96
-11
-56
-89
-56
-37
-30
-21
-11
4
18
30
49
70
77
89
117
138
152
183
201
213
232
251
251
262
286
298
300
300
274
201
107
28
-25
-75
-107
-119
-133
-150
-157
-157
-159
-164
-161
-154
-166
-185
-171
-154
-161
-154
-129
-117
-119
-124
-131
-126
-115
-105
-96
-84
-79
-84
-79
-65
-49
-42
-46
-46
-39
-32
-28
-21
-30
-49
-37
-21
-25
-23
-16
-14
-9
2
9
7
2
-7
-18
-21
-9
-11
-25
-9
35
68
63
49
51
39
23
32
46
44
35
44
56
53
56
46
-4
4
293
920
1399
920
-124
-352
51
39
-133
-63
-23
-65
-42
-16
-21
0
18
25
42
61
72
84
100
117
136
154
173
190
206
239
269
293
323
356
368
366
377
370
309
227
147
46
-44
-103
-138
-166
-190
-201
-206
-194
-180
-187
-201
-197
-192
-190
-178
-166
-159
-154
-140
-122
-110
-110
-107
-107
-122
-129
-112
-105
-122
-129
-124
-112
-98
-82
-82
-86
-75
-58
-49
-42
-35
-32
-28
-16
-4
-4
-11
-2
7
7
9
16
7
-4
7
30
51
68
77
77
75
51
30
35
39
35
39
46
49
49
30
-9
-42
9
352
1025
1479
927
-86
-225
129
39
-112
-18
2
-42
4
42
11
-4
-9
-14
4
16
18
30
42
61
103
136
129
119
154
192
211
230
251
279
312
333
338
338
305
234
152
72
0
-61
-103
-122
-131
-138
-131
-124
-133
-140
-133
-124
-129
-133
-129
-136
-136
-124
-115
-112
-107
-100
-96
-91
-79
-77
-86
-82
-70
-82
-98
-91
-82
-86
-77
-61
-56
-61
-70
-86
-96
-91
-86
-77
-75
-68
-51
-46
-44
-32
-28
-30
-18
-9
-7
-9
-14
-18
-14
11
46
63
58
58
65
53
44
49
51
46
53
63
58
49
44
18
-25
61
469
1159
1537
892
-61
-119
152
7
-103
-11
-2
-35
-2
18
11
21
37
46
61
68
70
84
93
84
96
115
98
82
117
157
173
199
230
246
267
298
309
286
244
194
122
32
-30
-84
-133
-154
-150
-152
-157
-145
-140
-145
-140
-133
-140
-152
-154
-145
-138
-143
-138
-129
-131
-126
-107
-100
-96
-84
-79
-82
-75
-65
-63
-61
-53
-49
-49
-42
-30
-25
-28
-23
-11
-7
-7
0
2
0
11
25
16
-16
-39
-39
-46
-58
-49
-42
-58
-61
-39
-21
7
39
42
28
28
25
18
23
28
28
30
37
46
49
44
16
-16
105
603
1310
1441
544
-255
-68
164
-37
-82
9
-21
-37
14
18
0
25
51
56
72
84
82
93
115
131
150
173
190
206
227
255
286
305
321
352
377
385
385
354
267
185
122
25
-65
-112
-157
-208
-237
-234
-223
-223
-215
-197
-187
-187
-180
-173
-190
-197
-173
-154
-154
-147
-143
-136
-122
-117
-122
-117
-112
-105
-98
-98
-93
-89
-86
-75
-61
-58
-49
-39
-42
-44
-32
-18
-14
-18
-18
-7
2
-2
0
11
2
-11
14
51
65
63
42
23
21
21
9
-11
-21
-9
-2
-4
11
23
-4
-42
-2
281
892
1354
849
-215
-424
39
68
-103
-25
14
-39
-14
30
21
16
32
37
28
42
72
79
82
107
131
143
159
185
204
220
253
291
316
333
354
377
392
392
363
293
197
110
37
-23
-72
-112
-143
-150
-145
-161
-173
-164
-150
-140
-138
-150
-166
-159
-143
-133
-124
-122
-129
-131
-140
-150
-138
-129
-129
-126
-117
-110
-103
-96
-98
-98
-84
-70
-68
-65
-68
-86
-112
-117
-96
-77
-75
-75
-68
-56
-49
-42
-37
-42
-44
-37
-30
-14
16
32
28
30
44
37
18
18
30
30
30
39
44
39
37
9
-44
28
427
1115
1495
859
-122
-206
82
-46
-157
-63
-49
-77
-39
-25
-32
-9
9
14
25
37
46
65
89
105
112
129
152
171
190
204
211
225
262
295
314
326
340
321
267
211
150
63
-16
-65
-100
-138
-152
-147
-152
-159
-145
-131
-129
-119
-105
-110
-112
-91
-77
-79
-77
-91
-110
-112
-110
-110
-107
-110
-96
-84
-107
-138
-138
-129
-129
-115
-100
-98
-91
-82
-82
-77
-56
-46
-49
-42
-35
-42
-39
-21
-16
-21
-21
-23
-30
-25
-21
-28
-37
-28
0
28
44
44
46
44
32
30
28
7
-4
11
16
11
23
25
-9
-46
68
507
1202
1509
772
-138
-117
119
-63
-143
-37
-42
-70
-30
-14
-18
-2
14
2
-16
-9
14
28
39
63
91
110
122
147
178
197
220
251
274
293
314
338
349
333
288
220
143
68
0
-51
-91
-115
-131
-145
-143
-133
-138
-136
-119
-107
-107
-105
-96
-91
-86
-72
-58
-58
-72
-79
-79
-103
-112
-100
-105
-122
-124
-122
-115
-107
-105
-103
-96
-82
-75
-77
-79
-63
-58
-82
-91
-75
-70
-75
-58
-46
-51
-49
-32
-23
-21
-14
-11
-21
-30
-16
0
7
21
28
23
23
23
14
9
18
21
18
28
37
39
39
25
-14
23
352
1011
1511
1035
2
-208
131
61
-91
-11
7
-42
-4
35
28
16
18
14
9
30
51
49
61
93
115
126
150
169
178
190
199
220
246
269
293
309
326
335
314
251
171
98
30
-35
-86
-119
-136
-152
-159
-154
-154
-157
-147
-136
-124
-117
-117
-110
-91
-79
-75
-63
-58
-77
-84
-77
-86
-98
-93
-89
-89
-89
-82
-70
-70
-77
-68
-53
-58
-68
-63
-61
-61
-49
-35
-30
-32
-32
-39
-56
-49
-28
-28
-42
-44
-58
-77
-68
-49
-61
-70
-49
-16
7
23
25
18
16
11
14
16
2
0
11
16
25
37
28
0
-25
89
558
1234
1324
417
-352
-112
173
-7
-61
39
16
-7
35
44
30
49
72
79
82
98
110
110
107
124
147
159
171
194
215
225
248
279
295
309
335
349
349
345
316
232
124
46
-14
-77
-117
-136
-164
-185
-173
-161
-169
-159
-138
-136
-143
-143
-145
-152
-152
-143
-136
-133
-131
-124
-117
-112
-103
-98
-100
-96
-86
-86
-79
-68
-70
-70
-56
-42
-42
-42
-35
-32
-30
-21
-11
-14
-28
-23
-7
-4
-2
7
4
2
16
25
16
14
18
21
11
4
16
32
30
28
35
37
37
30
7
9
30
32
25
30
37
28
18
-2
-49
-7
342
1030
1476
894
-91
-194
98
-30
-143
-42
-37
-75
-35
-16
-25
-2
21
18
23
42
56
65
86
107
112
124
147
164
169
187
213
232
248
267
277
284
291
291
272
227
161
82
0
-56
-84
-107
-124
-140
-173
-199
-190
-180
-190
-199
-190
-176
-171
-164
-152
-154
-161
-145
-129
-126
-119
-107
-112
-131
-126
-105
-103
-105
-96
-89
-84
-72
-58
-58
-61
-53
-39
-35
-35
-28
-14
-7
-2
7
11
7
4
0
-11
-7
9
9
2
9
21
18
16
16
7
2
23
61
86
82
72
70
56
44
35
9
-7
7
18
18
25
25
-9
-53
63
521
1204
1448
666
-213
-129
136
-39
-124
-30
-30
-46
-9
7
0
-4
-9
4
25
35
49
65
75
91
115
136
152
171
192
206
215
241
262
255
262
295
312
295
272
225
136
51
-4
-56
-115
-154
-166
-171
-192
-197
-185
-178
-169
-157
-152
-164
-183
-178
-159
-145
-133
-119
-115
-117
-122
-131
-124
-100
-93
-96
-89
-82
-77
-65
-56
-56
-56
-39
-21
-18
-23
-18
-2
11
21
30
21
-4
-9
9
2
-16
-11
-4
-7
7
11
-9
-23
-18
-2
25
46
56
51
39
35
32
32
42
49
44
37
49
63
56
25
0
117
593
1251
1239
241
-485
-164
136
-39
-77
4
-42
-61
-4
7
2
28
46
46
58
79
91
103
115
131
154
176
194
218
227
230
246
279
305
326
345
354
356
356
321
244
143
32
-65
-129
-159
-185
-215
-223
-220
-223
-213
-199
-194
-194
-183
-159
-147
-145
-138
-122
-112
-105
-91
-86
-89
-79
-65
-70
-91
-96
-86
-79
-86
-91
-91
-84
-75
-70
-61
-51
-42
-37
-37
-32
-18
-11
-9
-2
2
2
9
21
21
9
0
7
28
53
77
79
68
65
63
49
44
37
23
18
28
37
42
42
21
-21
35
415
1110
1511
873
-122
-187
129
-7
-126
-30
-32
-68
-25
-4
-16
-4
14
11
-2
-4
7
11
7
21
44
68
89
105
124
157
187
208
232
260
274
274
281
291
262
197
119
42
-28
-75
-105
-136
-147
-138
-138
-136
-131
-138
-147
-154
-169
-178
-169
-161
-152
-138
-131
-122
-107
-107
-105
-91
-86
-86
-75
-70
-72
-68
-56
-53
-53
-51
-46
-58
-70
-58
-46
-53
-51
-56
-82
-91
-86
-91
-89
-72
-53
-51
-53
-44
-35
-32
-30
-25
-28
-28
-4
35
56
51
49
44
28
25
39
44
37
39
44
49
56
61
30
-11
122
619
1324
1465
589
-206
-56
145
-44
-84
4
-18
-37
4
16
21
37
37
44
63
77
84
103
112
117
138
161
173
185
206
220
220
220
241
255
248
260
279
267
225
157
63
-18
-72
-117
-152
-166
-169
-171
-171
-161
-150
-145
-140
-133
-136
-140
-133
-133
-143
-136
-122
-115
-112
-112
-112
-110
-107
-93
-79
-79
-82
-72
-68
-70
-58
-44
-49
-51
-32
-21
-28
-28
-16
-9
-4
4
4
0
7
16
23
25
28
30
18
-4
-21
-28
-30
-21
-16
-44
-65
-39
-11
7
21
18
18
21
25
23
11
16
32
30
28
42
49
32
-4
-2
239
847
1460
1223
176
-309
28
107
-96
-58
16
-37
-32
23
23
14
42
63
58
61
84
107
115
129
157
171
171
190
225
248
269
302
321
331
368
403
403
382
352
291
185
75
-2
-75
-140
-164
-164
-178
-180
-169
-192
-218
-197
-164
-169
-176
-171
-173
-176
-157
-138
-145
-147
-129
-117
-117
-107
-98
-110
-117
-103
-93
-96
-89
-79
-79
-72
-58
-53
-56
-56
-49
-39
-32
-21
-14
-16
-16
-2
7
7
4
4
7
16
28
30
25
21
18
7
-2
16
51
58
30
18
30
21
2
7
18
21
23
30
28
28
35
35
-4
-11
227
835
1443
1204
161
-323
11
86
-117
-79
-7
-58
-65
-28
-23
-21
4
21
28
32
46
63
77
91
107
119
133
154
183
204
223
244
272
295
319
342
349
331
307
274
204
107
25
-46
-103
-124
-131
-147
-169
-190
-194
-180
-173
-176
-180
-185
-187
-176
-166
-154
-140
-140
-140
-124
-107
-105
-105
-98
-93
-89
-77
-68
-70
-75
-68
-72
-84
-75
-61
-79
-98
-79
-63
-68
-63
-53
-46
-42
-28
-18
-21
-18
-7
-2
0
9
16
11
9
23
30
28
30
30
18
11
25
35
39
51
58
56
53
37
4
-18
-7
14
14
11
21
25
23
0
-35
63
483
1185
1542
852
-98
-122
145
-21
-117
-11
-16
-51
-14
-7
-35
-14
16
18
21
35
51
61
79
105
122
124
129
145
150
152
176
204
220
244
279
298
300
298
279
227
152
75
-9
-86
-133
-173
-213
-215
-201
-211
-213
-194
-180
-192
-211
-199
-180
-173
-161
-138
-126
-117
-91
-82
-105
-103
-75
-75
-89
-72
-49
-44
-42
-32
-32
-30
-23
-28
-42
-42
-28
-16
-14
-9
-2
-2
0
11
23
23
23
32
35
30
37
49
46
35
42
49
32
23
32
28
7
4
23
42
61
63
46
49
61
51
35
35
42
44
37
25
11
7
7
-7
-44
39
467
1171
1511
821
-136
-164
136
2
-105
-11
-11
-44
-7
11
2
11
21
21
32
35
30
44
70
89
100
122
143
159
183
211
234
251
277
319
349
349
338
323
291
230
147
56
-35
-103
-150
-194
-227
-239
-244
-253
-246
-223
-211
-197
-185
-180
-169
-150
-147
-169
-169
-145
-131
-129
-110
-91
-91
-93
-82
-72
-68
-56
-49
-53
-49
-32
-21
-25
-28
-32
-39
-35
-21
-9
-9
-11
-2
4
7
11
21
23
25
30
35
35
42
49
44
35
37
44
42
46
79
105
96
91
93
65
39
46
46
42
46
46
28
9
14
2
-35
82
570
1244
1324
406
-392
-173
110
-63
-110
-11
-32
-53
-14
-2
2
28
39
35
46
58
53
56
65
68
79
107
129
143
169
190
204
227
258
284
300
307
305
288
251
190
110
18
-53
-98
-133
-161
-169
-171
-176
-169
-152
-145
-147
-154
-150
-138
-131
-119
-112
-110
-98
-82
-75
-68
-61
-75
-96
-96
-93
-119
-129
-110
-103
-100
-84
-68
-63
-65
-58
-46
-42
-30
-18
-16
-18
-21
-18
-14
-9
-4
0
4
9
18
21
16
18
30
32
35
37
25
11
18
39
58
79
91
82
77
77
68
61
58
63
70
65
51
46
51
35
-7
16
302
934
1514
1192
154
-208
105
84
-98
-32
0
-75
-58
-7
-21
-23
9
14
2
14
23
11
9
35
58
68
68
84
110
131
157
185
199
213
232
241
239
232
218
180
119
49
-21
-89
-136
-159
-173
-180
-173
-169
-171
-161
-143
-136
-131
-117
-107
-107
-110
-105
-93
-89
-84
-75
-70
-63
-51
-46
-53
-46
-30
-28
-28
-18
-23
-35
-49
-61
-56
-46
-44
-37
-28
-14
7
23
9
-25
-28
-4
-7
-23
-23
-35
-35
-16
-11
-14
-7
-2
-11
-14
-7
0
7
42
82
75
49
46
44
32
46
61
68
61
37
35
58
56
21
-11
112
598
1303
1453
586
-204
-58
138
-46
-82
9
-18
-39
-2
7
11
35
44
39
53
51
25
32
56
56
63
93
117
129
152
173
185
199
223
248
265
274
274
260
223
161
75
-30
-112
-152
-187
-211
-215
-218
-220
-204
-185
-180
-183
-176
-157
-147
-138
-119
-110
-115
-103
-79
-82
-89
-79
-75
-79
-63
-46
-49
-53
-49
-46
-44
-37
-32
-30
-30
-23
-9
-7
-11
-4
4
-4
-30
-30
-16
-11
-9
-14
-16
-2
9
0
-9
-7
-9
-16
-9
9
37
58
63
53
46
42
32
25
28
39
46
44
42
46
37
-14
-37
180
760
1321
1058
35
-408
-21
115
-68
-65
-9
-28
-18
0
0
16
37
53
63
61
65
89
115
129
138
150
173
190
199
215
234
244
244
258
284
307
321
326
305
255
173
82
-2
-89
-159
-192
-211
-239
-253
-244
-232
-227
-220
-204
-187
-183
-173
-150
-143
-143
-126
-115
-112
-100
-82
-79
-86
-84
-72
-82
-100
-93
-93
-115
-107
-82
-72
-72
-68
-61
-53
-44
-35
-32
-35
-30
-25
-30
-32
-7
21
42
53
53
49
42
30
14
4
4
9
4
-2
2
2
-14
-46
-35
211
793
1314
995
-18
-403
-4
96
-91
-46
23
-23
-18
25
23
23
51
68
68
72
86
103
115
131
150
159
166
190
204
206
225
248
260
269
288
316
328
316
298
253
166
75
-9
-84
-126
-133
-143
-157
-159
-154
-152
-143
-122
-105
-107
-122
-115
-91
-112
-152
-178
-192
-171
-145
-143
-136
-124
-129
-133
-119
-107
-105
-103
-98
-89
-79
-75
-63
-53
-58
-58
-49
-37
-30
-23
-23
-23
-16
-4
-4
-18
-30
-23
-11
9
30
32
23
18
11
4
18
35
16
-2
11
32
28
-4
-46
42
450
1152
1533
842
-157
-190
112
-44
-152
-49
-75
-136
-84
-61
-86
-75
-46
-39
-25
-2
18
32
42
58
86
110
133
161
180
197
230
267
293
314
333
349
356
352
326
260
161
79
14
-42
-82
-115
-138
-138
-129
-117
-110
-110
-103
-100
-105
-105
-93
-89
-91
-79
-68
-68
-58
-49
-49
-46
-35
-28
-28
-25
-32
-58
-86
-89
-89
-115
-140
-140
-138
-140
-124
-110
-112
-105
-89
-79
-79
-75
-68
-70
-75
-61
-35
-11
4
11
9
7
0
-7
-9
-2
11
18
23
44
63
9
-75
-70
136
666
1331
1314
345
-300
-42
91
-115
-105
-11
-51
-63
-18
-14
-18
2
21
28
39
51
61
75
91
112
131
145
169
197
218
225
227
227
237
253
279
298
295
272
230
152
65
-2
-61
-115
-136
-138
-145
-145
-131
-136
-143
-124
-103
-96
-96
-84
-75
-72
-61
-44
-44
-51
-56
-53
-44
-39
-56
-72
-65
-49
-49
-49
-42
-39
-49
-49
-35
-23
-25
-23
-14
-16
-32
-35
-35
-61
-72
-56
-46
-46
-49
-53
-61
-68
-68
-56
-53
-65
-61
-44
-53
-68
-68
-82
-91
-68
-58
-70
-58
-42
-56
-96
-49
319
1002
1375
716
-288
-335
77
14
-124
-42
-21
-46
-18
-14
-21
0
16
30
46
53
63
86
105
122
145
166
178
197
230
258
281
312
338
356
389
427
434
413
366
288
190
93
14
-46
-93
-133
-150
-152
-171
-183
-176
-166
-157
-138
-126
-129
-117
-91
-82
-75
-53
-49
-61
-51
-37
-53
-65
-49
-53
-68
-53
-49
-68
-70
-58
-58
-58
-63
-61
-53
-56
-49
-42
-46
-42
-30
-32
-49
-53
-39
-28
-21
-23
-28
-32
-44
-53
-49
-46
-46
-37
-37
-35
-21
-21
-46
-77
4
394
1047
1319
577
-361
-319
42
-70
-173
-82
-75
-103
-61
-37
-51
-37
-4
9
14
32
49
56
72
98
115
129
147
176
185
185
213
262
281
288
314
340
345
328
286
204
112
37
-28
-86
-124
-133
-138
-138
-129
-124
-133
-124
-103
-98
-96
-79
-75
-70
-53
-37
-32
-35
-25
-16
-21
-30
-23
-16
-23
-21
-16
-42
-68
-61
-58
-63
-51
-39
-42
-39
-32
-30
-30
-21
-11
-14
-16
-14
-21
-35
-44
-49
-51
-56
-56
-58
-65
-68
-46
-23
-11
-9
-4
-11
-32
-35
-25
-42
-53
-42
-37
-42
-28
-23
-68
-77
145
723
1387
1326
342
-279
-28
79
-124
-112
-25
-63
-79
-51
-39
-30
-11
-2
7
21
21
11
23
44
53
75
103
124
150
178
199
218
255
288
309
331
349
349
333
295
227
131
44
-16
-68
-112
-122
-119
-129
-129
-115
-105
-103
-96
-93
-93
-84
-70
-61
-63
-61
-53
-61
-77
-68
-53
-72
-84
-65
-61
-68
-61
-53
-58
-56
-44
-49
-61
-56
-44
-42
-39
-37
-51
-68
-77
-96
-117
-115
-103
-100
-100
-93
-82
-75
-75
-70
-63
-56
-49
-44
-39
-49
-56
-49
-35
-11
18
18
-4
0
7
-7
-11
0
2
2
9
21
23
21
16
-18
-25
201
784
1443
1347
356
-220
32
100
-105
-91
-32
-77
-65
-25
-37
-32
-18
-28
-16
11
16
23
49
72
84
98
119
138
145
150
176
206
225
253
286
307
323
335
319
279
223
143
58
-7
-56
-93
-107
-110
-124
-140
-138
-119
-117
-129
-126
-117
-119
-117
-98
-89
-86
-77
-70
-70
-58
-42
-37
-42
-49
-56
-65
-72
-72
-72
-79
-79
-68
-65
-68
-68
-86
-122
-122
-91
-89
-100
-93
-79
-72
-65
-46
-39
-46
-58
-68
-79
-77
-63
-51
-44
-37
-28
-25
-28
-23
-11
-4
-2
-2
-4
-7
14
42
37
30
39
32
11
16
37
39
32
35
39
39
46
61
30
-16
136
659
1349
1457
565
-234
-70
161
-25
-75
23
0
-35
4
25
7
4
14
28
51
65
72
89
89
79
100
129
147
169
192
204
208
232
274
302
314
333
345
326
298
251
159
53
-21
-72
-119
-154
-180
-194
-187
-176
-166
-166
-178
-173
-161
-173
-178
-157
-145
-145
-136
-124
-115
-103
-100
-107
-96
-77
-77
-84
-84
-77
-70
-65
-56
-46
-49
-53
-58
-58
-49
-44
-46
-46
-32
-21
-16
-14
-7
-2
-2
2
21
30
11
-16
-25
-28
-35
-37
-46
-49
-25
2
30
51
46
39
37
18
0
0
4
9
16
18
21
28
23
-9
-11
225
814
1387
1122
84
-366
21
140
-51
-28
39
4
9
44
42
42
61
70
82
98
98
86
91
100
105
119
136
145
169
197
211
232
269
291
307
333
352
349
331
277
171
58
-21
-91
-150
-183
-194
-201
-204
-192
-190
-211
-230
-223
-213
-206
-192
-180
-169
-150
-129
-117
-119
-117
-100
-89
-82
-70
-65
-72
-70
-51
-39
-37
-30
-28
-28
-23
-9
9
21
16
9
14
0
-39
-44
-14
2
11
30
46
49
28
-2
-9
14
35
32
30
39
42
35
28
18
4
21
68
79
63
65
61
42
42
56
61
56
44
39
46
49
35
-4
37
389
1072
1540
986
-44
-211
105
7
-126
-39
-23
-63
-28
-2
-11
-2
2
-11
2
25
32
37
58
72
84
91
105
122
138
159
185
201
213
232
244
237
239
255
244
204
145
58
-25
-75
-107
-152
-194
-206
-194
-192
-185
-166
-161
-161
-147
-126
-124
-126
-122
-117
-112
-96
-82
-79
-70
-61
-58
-56
-44
-32
-35
-37
-35
-39
-56
-56
-39
-39
-39
-25
-16
-16
-14
-9
-11
-9
4
11
7
-2
2
9
7
14
21
14
16
30
35
30
32
39
39
39
42
37
23
25
42
65
84
77
39
21
25
28
23
28
35
35
25
21
30
35
0
-42
61
476
1162
1521
845
-103
-131
136
-18
-115
-14
-21
-65
-28
-11
-30
-18
-4
-11
-18
-9
11
21
21
39
68
79
84
103
119
119
133
159
166
171
194
215
220
225
225
185
112
35
-28
-82
-119
-140
-161
-173
-161
-157
-173
-187
-178
-161
-152
-133
-122
-126
-131
-119
-107
-103
-91
-75
-70
-70
-53
-39
-39
-42
-39
-35
-23
-14
-11
-16
-18
-2
11
7
9
16
14
11
23
30
23
28
30
18
11
23
21
-9
-21
-11
-4
0
9
16
11
11
21
23
16
11
16
18
37
75
91
77
70
72
61
44
25
7
9
21
21
16
16
9
-32
-28
255
896
1420
1002
-39
-312
84
91
-82
-25
4
-37
-4
32
25
30
35
16
25
51
65
72
84
100
112
126
145
152
150
169
206
227
234
241
241
225
232
251
239
197
147
77
-9
-77
-117
-150
-173
-178
-176
-173
-164
-152
-157
-152
-131
-122
-138
-150
-140
-133
-136
-122
-103
-100
-98
-89
-79
-70
-58
-56
-61
-58
-46
-35
-32
-30
-28
-21
-16
-7
0
0
-2
2
9
11
18
23
18
16
23
16
-2
0
7
2
7
21
25
18
16
23
23
11
11
23
30
46
77
82
70
68
51
16
4
23
30
21
21
30
35
16
-44
-100
30
521
1213
1373
521
-269
-117
89
-105
-136
-35
-63
-89
-51
-53
-63
-32
-16
-21
-9
14
23
35
56
68
75
96
122
138
147
152
150
143
152
178
194
197
206
218
201
164
105
25
-51
-96
-124
-147
-161
-166
-164
-157
-145
-133
-131
-131
-119
-103
-100
-93
-82
-93
-112
-105
-107
-133
-129
-103
-100
-100
-84
-70
-70
-72
-61
-51
-46
-39
-30
-30
-28
-16
-4
-2
0
7
11
11
23
32
30
25
32
42
39
39
28
7
9
23
25
21
25
28
18
9
21
44
61
77
86
84
77
72
68
58
58
70
75
68
70
72
63
44
18
115
523
1199
1504
774
-166
-159
105
-82
-180
-65
-65
-105
-65
-56
-75
-58
-32
-25
-16
2
18
28
39
61
82
96
115
136
147
154
169
176
180
199
208
199
204
213
206
173
110
42
-25
-91
-129
-145
-161
-164
-154
-152
-150
-136
-124
-119
-112
-98
-93
-86
-70
-58
-61
-61
-51
-44
-37
-32
-42
-53
-58
-70
-93
-84
-68
-72
-75
-61
-46
-35
-30
-37
-35
-23
-32
-42
-30
-28
-32
-18
-2
0
-4
4
11
9
16
28
30
16
-4
-16
-11
7
37
58
51
44
51
42
25
35
46
44
46
53
51
46
49
32
0
110
570
1211
1284
399
-370
-140
173
18
-42
42
11
-25
11
25
14
16
23
32
42
39
37
58
77
82
98
124
140
152
178
204
218
234
258
272
272
279
284
262
223
169
91
4
-82
-157
-199
-208
-211
-218
-220
-208
-192
-185
-178
-159
-145
-143
-133
-115
-103
-93
-82
-77
-77
-68
-53
-49
-51
-44
-37
-35
-30
-21
-18
-30
-44
-39
-30
-28
-18
-11
-25
-44
-39
-25
-25
-21
-14
-9
-4
4
9
7
11
18
21
18
14
9
21
53
79
82
75
72
65
51
37
35
25
2
0
14
14
16
7
-42
11
403
1087
1455
817
-150
-201
133
23
-96
-7
-4
-42
-7
14
11
35
44
35
51
77
84
82
82
96
115
138
161
169
159
143
145
173
201
223
234
251
267
269
253
218
152
68
-2
-46
-86
-131
-159
-169
-180
-183
-169
-159
-166
-171
-159
-147
-145
-136
-129
-124
-110
-91
-86
-89
-84
-79
-93
-100
-89
-82
-89
-79
-61
-58
-58
-46
-44
-44
-37
-23
-18
-18
-14
-4
-4
-11
-7
0
-4
-2
11
11
14
21
9
-16
-25
-18
-16
-7
23
49
49
46
53
39
16
23
42
39
39
49
46
42
51
28
-18
77
523
1225
1493
725
-159
-107
136
-37
-112
-14
-23
-49
-18
-7
-2
16
28
32
42
37
23
42
70
77
84
107
131
145
169
197
204
211
237
265
274
274
269
260
241
206
145
58
-39
-105
-131
-150
-159
-154
-161
-159
-140
-138
-150
-150
-152
-161
-152
-133
-129
-131
-122
-110
-110
-115
-103
-96
-100
-96
-79
-72
-72
-65
-63
-63
-58
-42
-37
-39
-35
-25
-23
-21
-4
0
-11
-7
9
9
9
18
9
-11
-16
0
0
-14
-16
-9
-16
-23
-9
7
18
44
63
58
51
32
-7
-18
2
11
4
9
18
21
21
7
-28
37
415
1103
1514
896
-89
-166
129
-11
-124
-23
-23
-61
-21
0
-9
4
23
25
30
53
70
77
98
124
129
131
157
185
201
220
239
253
277
312
333
333
335
340
314
248
166
79
-16
-98
-131
-147
-161
-159
-161
-166
-157
-145
-138
-140
-159
-176
-176
-166
-159
-157
-154
-147
-136
-136
-138
-119
-110
-119
-112
-91
-100
-129
-126
-110
-100
-89
-77
-75
-75
-65
-56
-51
-51
-39
-25
-28
-25
-14
-16
-16
-2
2
-2
9
21
14
2
4
9
16
39
65
58
30
30
42
30
16
23
23
25
39
42
35
37
30
-9
-14
272
913
1326
760
-265
-429
7
32
-107
-32
-2
-44
-11
7
-7
21
30
2
30
77
63
56
96
124
131
159
180
183
204
239
265
293
326
352
370
389
401
401
377
316
225
115
7
-61
-107
-150
-173
-176
-187
-204
-197
-183
-171
-152
-138
-143
-145
-129
-122
-129
-140
-136
-122
-112
-117
-122
-110
-122
-154
-143
-124
-152
-161
-138
-138
-131
-103
-96
-103
-103
-107
-107
-91
-77
-84
-89
-84
-70
-51
-42
-18
16
9
-2
9
-7
-23
7
30
0
-14
16
32
16
4
-7
-14
145
643
1159
955
21
-504
-150
98
-44
-32
49
4
2
44
39
42
65
70
84
110
110
112
136
159
161
169
176
173
197
237
265
293
316
338
375
396
399
385
331
255
164
42
-61
-122
-169
-199
-206
-204
-201
-199
-185
-183
-194
-192
-176
-154
-136
-124
-110
-96
-91
-89
-70
-58
-53
-44
-39
-49
-68
-89
-103
-107
-96
-86
-93
-93
-77
-72
-70
-58
-49
-58
-70
-56
-23
0
14
11
14
16
-4
-37
-51
-46
-28
-16
-21
-9
7
-7
-49
-49
190
744
1211
873
-96
-429
4
129
-61
-37
30
-23
-37
4
9
7
32
56
61
65
84
103
115
129
147
164
176
197
223
246
269
286
302
323
345
366
382
375
333
255
157
72
16
-30
-75
-98
-107
-112
-105
-86
-82
-93
-86
-61
-53
-68
-79
-72
-68
-58
-37
-28
-42
-53
-51
-42
-39
-53
-68
-68
-61
-56
-51
-46
-44
-44
-49
-44
-37
-32
-32
-32
-51
-82
-84
-72
-100
-133
-115
-84
-65
-44
-37
-51
-65
-82
-86
-75
-70
-70
-58
-46
-39
-37
-53
-98
-28
349
1037
1504
946
-103
-253
93
-2
-147
-58
-39
-82
-49
-23
-53
-63
-37
-18
-7
9
16
18
30
56
89
110
124
150
183
211
244
277
307
333
359
382
392
375
338
265
161
63
-2
-51
-86
-103
-117
-143
-154
-133
-115
-119
-133
-129
-115
-100
-86
-82
-84
-77
-61
-51
-46
-32
-28
-35
-30
-7
-2
-14
-11
2
4
4
14
9
-2
4
23
11
-21
-37
-32
-35
-46
-42
-35
-32
-37
-46
-46
-25
7
30
28
23
18
-11
-39
-44
-51
-58
-49
-42
-44
-42
-51
-89
-77
183
793
1432
1225
166
-312
7
30
-183
-147
-98
-140
-115
-77
-82
-72
-51
-39
-21
2
11
18
39
61
75
100
129
140
154
190
227
255
284
312
333
342
333
314
286
215
124
42
-32
-84
-115
-140
-150
-133
-126
-133
-133
-124
-117
-107
-91
-84
-86
-79
-68
-63
-56
-42
-35
-32
-23
-16
-18
-14
-2
-7
-14
-18
-9
-2
-2
2
9
-9
-18
7
18
4
11
23
7
-11
-2
4
-2
-9
-11
-11
-9
-9
-2
-7
-18
-7
-7
-28
-18
4
-2
-14
-2
-4
-35
-53
-58
-63
-63
-58
-58
-58
-49
-39
-42
-82
-105
32
488
1190
1455
652
-234
-150
84
-107
-166
-58
-75
-103
-53
-32
-46
-44
-25
-9
2
16
37
56
77
89
96
115
140
161
183
208
239
269
293
309
333
356
363
356
323
237
126
49
-4
-63
-98
-110
-129
-161
-183
-171
-161
-161
-150
-133
-126
-115
-103
-103
-100
-82
-70
-65
-56
-49
-46
-37
-25
-23
-23
-21
-14
-9
-7
0
7
-2
-9
-14
-23
-30
-28
-25
-28
-23
-11
-7
-11
-14
-9
-2
0
7
7
-7
-14
-14
-28
-35
-25
-28
-35
-32
-25
-32
-51
-49
-30
-7
16
25
11
-4
-21
-51
-82
-86
-72
-77
-96
-91
-70
-61
-77
-115
-93
178
802
1427
1178
136
-295
9
18
-166
-107
-56
-103
-79
-30
-32
-28
-9
-11
-18
2
28
35
42
68
93
110
131
152
169
187
218
248
272
293
316
335
347
352
342
302
227
145
72
11
-32
-61
-84
-96
-91
-98
-115
-110
-103
-124
-147
-133
-115
-122
-124
-105
-105
-122
-112
-93
-98
-100
-79
-61
-61
-65
-72
-82
-86
-89
-86
-86
-89
-84
-77
-72
-65
-75
-93
-89
-68
-63
-68
-61
-53
-49
-35
-21
-18
-21
-21
-14
-7
-4
2
14
14
11
18
21
16
14
14
25
58
82
77
65
65
46
16
16
35
37
25
7
-7
-2
4
-7
-51
-37
253
899
1479
1148
91
-293
25
23
-150
-91
-49
-93
-70
-39
-46
-28
-2
0
11
21
23
32
42
61
89
110
131
154
178
204
232
253
281
319
328
319
340
361
338
284
211
115
28
-35
-89
-131
-154
-161
-164
-166
-164
-176
-194
-197
-192
-185
-176
-173
-187
-204
-197
-169
-159
-159
-152
-140
-124
-117
-115
-112
-110
-100
-77
-61
-65
-75
-65
-56
-84
-105
-89
-79
-82
-84
-79
-68
-58
-53
-51
-44
-25
-14
-16
-9
-4
-7
0
11
7
0
11
51
82
79
86
112
82
16
16
42
49
65
70
56
51
32
4
-21
9
316
974
1415
849
-199
-366
58
58
-91
-21
14
-28
-4
23
23
39
56
61
72
84
93
107
124
131
140
152
157
169
180
171
166
192
234
260
272
291
307
309
293
248
164
53
-35
-93
-147
-185
-194
-204
-208
-194
-176
-171
-166
-152
-145
-138
-122
-105
-103
-105
-107
-105
-100
-89
-75
-77
-77
-63
-46
-49
-68
-82
-77
-72
-63
-49
-44
-46
-35
-25
-21
-9
-2
-9
-9
9
18
11
14
23
25
23
14
9
11
11
9
4
4
23
44
58
68
75
75
63
51
42
30
18
25
37
32
32
39
25
-21
7
323
976
1500
1068
28
-239
93
37
-133
-53
-11
-56
-37
-4
-9
-2
21
23
0
-9
16
42
51
65
89
98
100
112
138
166
183
201
227
251
269
293
307
298
265
218
150
68
-11
-86
-143
-171
-185
-194
-199
-199
-192
-183
-173
-159
-157
-159
-145
-126
-119
-112
-98
-107
-126
-117
-93
-91
-93
-82
-72
-75
-79
-75
-70
-70
-63
-49
-46
-39
-30
-32
-32
-21
-14
-28
-44
-39
-28
-28
-21
-9
-7
-9
0
7
9
16
25
14
7
11
14
16
21
37
56
61
63
65
46
30
42
49
44
51
56
51
53
58
21
-4
180
718
1392
1415
476
-211
2
136
-68
-72
11
-14
-18
7
-4
-4
9
-2
-2
16
23
35
61
79
91
107
129
145
152
154
159
173
187
211
239
258
269
274
262
234
185
103
14
-51
-93
-131
-161
-171
-183
-201
-204
-199
-201
-192
-180
-178
-176
-164
-145
-138
-133
-124
-115
-107
-96
-84
-79
-82
-75
-63
-61
-58
-49
-49
-53
-42
-28
-32
-44
-39
-32
-32
-23
-9
-11
-18
-9
-4
-23
-30
-14
-14
-21
-23
-44
-58
-44
-32
-35
-35
-30
-28
-28
-18
14
44
49
46
46
25
0
7
23
23
23
28
28
32
42
18
-25
68
511
1211
1488
739
-150
-107
140
-23
-96
0
-11
-42
-7
9
9
30
39
37
51
63
61
72
96
103
115
145
164
176
197
215
232
255
286
305
316
321
316
288
246
197
124
18
-65
-100
-131
-164
-173
-176
-185
-197
-215
-239
-255
-251
-241
-244
-234
-213
-206
-206
-192
-173
-166
-157
-143
-138
-138
-124
-107
-105
-103
-93
-86
-84
-75
-63
-61
-63
-51
-37
-35
-30
-23
-35
-44
-25
-7
-9
-11
-4
0
2
9
21
21
14
21
28
25
23
18
7
-4
-9
9
37
35
21
16
-9
-21
-4
0
-11
-2
2
-11
-9
0
-39
-79
93
626
1298
1352
439
-291
-75
131
-61
-93
-9
-30
-39
-2
7
9
23
37
51
65
70
89
110
122
129
143
157
161
171
197
225
248
281
305
300
305
335
349
335
302
239
150
65
2
-56
-107
-138
-157
-183
-194
-194
-201
-208
-201
-190
-180
-176
-171
-178
-192
-183
-157
-145
-145
-138
-131
-143
-147
-131
-124
-131
-122
-103
-98
-93
-82
-82
-82
-70
-51
-39
-39
-39
-30
-23
-18
-9
-4
-7
-4
-9
-21
-16
-2
-4
-9
0
2
-2
9
37
63
70
68
70
58
35
37
51
51
53
63
61
46
25
11
-18
-2
298
943
1415
915
-119
-328
63
49
-107
-35
2
-37
-23
0
4
23
42
49
53
51
42
56
86
93
98
122
145
161
185
211
223
237
269
293
295
300
300
284
265
232
164
75
-2
-53
-93
-122
-131
-136
-145
-147
-145
-145
-154
-159
-152
-143
-140
-131
-124
-124
-131
-143
-145
-133
-122
-119
-117
-110
-119
-129
-119
-110
-110
-107
-96
-84
-82
-77
-70
-63
-56
-46
-37
-32
-37
-30
-11
-7
-9
-2
-7
-28
-30
-14
-9
-11
-9
-2
-4
-16
-30
-28
-9
23
46
42
42
42
25
16
30
46
46
42
46
51
51
44
11
7
241
840
1462
1249
227
-234
58
70
-124
-70
-9
-68
-72
-37
-35
-25
-2
4
4
23
49
61
77
93
100
112
140
166
183
201
223
241
265
288
300
302
302
312
305
262
199
119
14
-82
-131
-157
-178
-183
-178
-178
-185
-183
-178
-185
-192
-178
-164
-159
-145
-136
-138
-131
-110
-103
-103
-93
-86
-89
-82
-70
-61
-68
-89
-98
-84
-84
-96
-93
-91
-86
-75
-65
-61
-49
-44
-46
-39
-21
-16
-18
-14
-7
-4
0
16
18
11
18
32
30
21
18
23
37
70
86
79
65
44
25
30
49
68
56
21
21
44
28
-11
-44
-28
232
861
1462
1166
126
-260
63
65
-112
-46
4
-49
-32
9
2
4
23
9
-4
4
16
32
56
61
65
89
117
138
157
176
206
241
262
279
291
286
286
300
298
251
178
98
21
-39
-77
-100
-122
-133
-131
-119
-117
-138
-159
-169
-166
-159
-150
-138
-133
-124
-110
-100
-93
-91
-93
-91
-82
-84
-103
-98
-82
-91
-89
-63
-49
-53
-51
-51
-61
-44
-25
-39
-75
-86
-61
-37
-35
-23
-11
-39
-72
-58
-37
-28
-21
-11
-7
-4
2
2
-11
-11
16
49
63
63
61
49
39
42
46
44
51
61
51
37
37
39
4
-16
164
697
1321
1220
213
-385
-37
159
-37
-39
42
2
-11
35
46
39
51
63
75
84
98
115
124
126
147
173
176
152
147
164
173
192
227
258
272
291
300
291
279
258
192
93
9
-51
-98
-133
-152
-171
-178
-166
-147
-145
-152
-159
-157
-157
-154
-140
-138
-150
-145
-126
-119
-112
-100
-105
-105
-89
-79
-84
-84
-77
-72
-70
-61
-46
-42
-46
-39
-32
-32
-23
-18
-23
-16
0
0
-2
4
9
2
-9
-23
-39
-44
-44
-42
-56
-79
-72
-44
-28
-7
16
11
2
4
-2
-9
-2
11
18
16
16
23
25
0
-35
35
413
1096
1488
842
-143
-197
126
-2
-119
-16
-11
-56
-18
7
-2
14
42
44
42
56
77
86
100
119
131
140
161
190
206
223
241
265
286
307
326
316
295
295
286
223
122
30
-35
-91
-126
-138
-152
-161
-159
-166
-185
-194
-183
-187
-201
-192
-173
-169
-161
-147
-147
-143
-122
-107
-107
-107
-103
-105
-107
-96
-84
-89
-91
-77
-65
-63
-56
-44
-46
-46
-32
-21
-21
-16
-14
-11
-7
2
14
11
4
14
23
23
25
32
28
23
23
7
0
23
46
63
65
42
14
4
-4
-7
2
7
9
16
14
16
28
9
-37
25
394
1054
1467
899
-86
-218
82
-21
-143
-51
-35
-86
-77
-46
-37
-25
-9
2
11
21
39
63
82
91
105
126
143
164
192
215
227
248
281
307
321
326
319
309
295
253
176
89
9
-63
-117
-138
-138
-147
-157
-152
-159
-194
-199
-183
-194
-204
-180
-161
-161
-159
-147
-138
-131
-117
-103
-100
-103
-93
-79
-77
-75
-68
-82
-103
-98
-93
-107
-103
-86
-84
-82
-65
-53
-53
-49
-35
-28
-25
-16
-9
-14
-14
0
11
14
14
18
21
21
23
18
9
14
42
72
82
77
63
35
21
30
39
39
39
42
42
30
14
9
-18
-58
77
561
1246
1420
582
-234
-100
133
-49
-103
-7
-28
-56
-9
11
9
21
23
16
23
37
61
77
79
91
117
124
122
145
176
185
206
241
265
277
288
293
298
300
286
223
126
44
-7
-58
-105
-122
-131
-143
-143
-147
-166
-176
-178
-183
-176
-161
-152
-150
-143
-133
-154
-178
-157
-131
-140
-145
-119
-103
-105
-105
-93
-86
-82
-75
-63
-63
-63
-53
-39
-37
-39
-42
-44
-42
-37
-30
-23
-18
-11
-9
-7
2
16
16
11
21
30
28
30
32
18
0
4
14
2
4
39
68
68
63
70
70
46
21
14
23
30
35
30
28
42
51
35
-4
7
295
936
1403
880
-152
-319
79
44
-105
-16
11
-44
-18
25
16
16
42
58
58
61
65
72
89
100
110
129
150
171
190
197
208
234
258
272
291
309
314
316
312
272
199
115
37
-18
-65
-107
-138
-161
-176
-178
-187
-206
-213
-208
-204
-190
-171
-159
-157
-145
-131
-122
-112
-98
-100
-119
-122
-103
-100
-100
-86
-82
-84
-72
-56
-53
-51
-46
-42
-30
-18
-11
-11
-23
-32
-28
-18
-14
-9
-9
-4
9
16
14
16
21
25
25
30
37
37
35
42
49
44
42
44
39
56
93
105
89
89
100
93
70
56
58
56
49
51
49
30
30
32
-18
-30
225
835
1467
1270
211
-321
-14
58
-138
-105
-37
-75
-65
-25
-18
-11
2
9
28
46
44
32
37
53
70
93
115
129
145
171
194
218
244
267
281
298
312
305
281
241
171
82
7
-53
-103
-140
-159
-164
-171
-171
-157
-145
-150
-157
-150
-136
-126
-119
-112
-105
-89
-75
-70
-68
-63
-61
-70
-79
-84
-107
-122
-100
-84
-89
-84
-70
-68
-65
-51
-35
-32
-37
-30
-16
-16
-28
-25
-16
-16
-9
2
4
11
18
11
9
21
28
28
35
42
39
35
42
46
37
25
44
82
98
91
86
84
84
79
63
51
46
46
53
49
42
56
63
32
-4
86
507
1202
1493
713
-237
-173
152
-25
-136
-35
-56
-105
-58
-42
-77
-68
-42
-35
-18
9
23
25
35
51
70
93
124
150
161
176
197
223
244
253
267
281
293
307
284
213
133
51
-39
-98
-133
-176
-204
-192
-183
-183
-178
-169
-159
-150
-150
-145
-131
-119
-110
-89
-70
-65
-65
-58
-53
-46
-37
-30
-32
-32
-23
-30
-58
-65
-51
-53
-58
-42
-30
-28
-25
-35
-51
-44
-25
-35
-46
-35
-21
-23
-16
-4
-4
-11
-4
7
7
7
11
11
28
65
75
61
65
77
58
35
42
61
53
44
56
65
63
63
51
-2
7
335
1009
1450
903
-117
-281
112
84
-65
4
23
-18
14
42
35
39
39
28
32
28
11
25
51
58
72
98
122
133
147
173
197
206
223
241
248
253
267
272
248
201
122
9
-86
-131
-164
-199
-211
-208
-208
-201
-185
-173
-173
-164
-145
-133
-122
-107
-100
-100
-89
-75
-75
-79
-72
-63
-58
-49
-39
-39
-42
-35
-23
-16
-16
-14
-11
-11
-2
9
14
11
11
11
-7
-21
-4
4
-7
0
18
21
16
21
9
-9
-2
16
14
11
14
2
-2
16
49
70
65
58
72
72
56
49
35
14
14
30
32
28
32
30
-9
-28
161
699
1382
1439
497
-253
-56
112
-100
-122
-21
-49
-65
-21
-14
-18
2
23
28
25
21
35
56
61
75
98
105
98
105
136
159
176
201
230
251
265
260
241
218
183
126
53
-21
-89
-143
-176
-187
-192
-197
-192
-185
-180
-171
-154
-143
-140
-136
-124
-115
-105
-93
-91
-110
-115
-89
-75
-77
-72
-82
-98
-86
-68
-63
-63
-58
-51
-46
-37
-25
-21
-28
-23
-9
-2
-2
7
7
7
14
23
23
23
16
-4
-18
-9
7
2
-4
-4
-7
-16
-9
0
-7
-11
-7
-2
14
44
63
56
49
61
68
49
30
39
53
49
49
58
56
51
53
21
-4
173
716
1408
1457
516
-220
-44
98
-98
-112
-42
-86
-89
-46
-49
-42
-11
-2
-2
7
7
11
32
53
61
72
93
115
129
152
178
183
178
206
239
251
246
232
206
171
126
58
-25
-98
-143
-173
-197
-201
-199
-204
-197
-178
-169
-164
-152
-145
-143
-131
-112
-100
-98
-96
-82
-70
-63
-53
-44
-49
-53
-53
-56
-53
-46
-42
-42
-37
-25
-16
-21
-21
-14
-25
-42
-30
-16
-23
-18
-2
-2
-2
7
14
9
16
25
30
21
-4
-18
-11
-11
-23
-25
-21
-16
-7
0
0
2
7
-2
2
42
75
68
53
58
68
63
51
44
42
46
56
56
56
65
63
39
0
30
333
979
1526
1138
91
-232
86
51
-126
-53
-4
-51
-32
7
-7
-16
-4
7
14
23
35
30
25
39
65
77
82
105
133
147
164
166
152
154
169
173
183
192
185
157
103
32
-32
-98
-147
-169
-180
-190
-183
-176
-180
-176
-152
-140
-136
-126
-117
-112
-103
-89
-77
-77
-72
-58
-51
-56
-63
-63
-63
-58
-42
-35
-37
-32
-28
-30
-23
-9
-4
-9
-4
2
7
9
18
25
21
18
30
35
35
37
37
32
37
49
42
4
-23
-21
-25
-37
-25
-18
-28
-21
-4
-4
0
9
7
2
11
18
21
44
68
63
53
63
77
65
39
37
51
49
46
53
56
51
39
14
-28
42
439
1129
1495
835
-133
-192
91
-39
-143
-49
-46
-79
-51
-35
-32
-11
-4
-16
-16
-11
-16
-2
18
23
25
49
75
84
79
70
75
98
133
161
180
197
206
197
166
138
100
25
-51
-100
-131
-159
-169
-166
-173
-171
-152
-140
-133
-124
-115
-110
-103
-84
-68
-70
-77
-70
-53
-51
-42
-32
-35
-32
-21
-14
-14
-9
-7
-11
-7
4
9
7
9
16
18
18
23
30
25
25
39
44
39
42
44
37
28
21
2
-18
-14
-7
-9
-2
16
14
4
11
23
23
23
30
23
0
-7
7
7
0
25
58
53
42
58
70
44
21
25
23
2
-2
-2
-11
0
16
-18
-72
14
431
1117
1455
774
-180
-208
89
-51
-166
-86
-98
-136
-93
-68
-77
-68
-51
-42
-35
-23
-4
16
23
21
37
72
89
84
84
105
133
164
190
213
234
248
262
272
267
237
169
89
18
-42
-93
-115
-131
-171
-194
-169
-147
-152
-143
-136
-143
-138
-117
-110
-107
-93
-77
-70
-70
-56
-46
-56
-53
-37
-35
-39
-28
-16
-23
-28
-21
-9
-9
-11
-7
0
2
7
14
11
11
16
11
2
0
9
7
4
-7
-32
-35
-21
-14
-11
-4
0
2
0
2
11
14
14
14
23
49
72
70
53
51
65
58
32
23
25
7
-16
-14
-2
-16
-37
-58
-79
65
591
1230
1159
176
-471
-152
82
-103
-122
-51
-103
-105
-53
-53
-56
-28
-23
-25
0
25
32
39
49
46
51
77
110
122
136
161
169
159
187
234
251
260
281
284
258
211
136
49
-21
-70
-107
-138
-150
-147
-140
-133
-122
-110
-110
-105
-93
-98
-105
-91
-77
-79
-72
-51
-39
-42
-42
-35
-44
-63
-56
-42
-49
-49
-32
-28
-30
-23
-16
-18
-14
0
7
0
2
14
18
14
18
14
-7
-7
11
14
14
18
18
14
0
-16
-18
-16
-21
-21
-18
-2
35
58
42
35
56
53
32
28
35
32
32
44
46
46
46
23
-44
-61
201
824
1420
1169
147
-305
11
63
-131
-100
-32
-65
-61
-30
-37
-49
-42
-37
-35
-32
-30
-14
0
-2
-2
23
39
46
65
84
86
107
140
164
183
208
230
234
223
197
133
35
-37
-84
-131
-164
-171
-173
-176
-171
-159
-152
-143
-126
-112
-110
-107
-91
-82
-77
-68
-70
-84
-77
-56
-49
-49
-39
-35
-35
-30
-18
-11
-14
-14
-7
0
2
9
16
11
9
23
32
28
30
35
32
35
44
49
42
32
21
0
-16
-9
2
-7
-9
-4
-9
-4
16
44
51
28
16
25
11
-4
7
16
16
23
28
23
30
39
9
-32
84
537
1232
1507
734
-180
-138
112
-61
-136
-35
-51
-96
-65
-44
-44
-30
-14
-4
2
9
25
49
61
70
86
107
117
124
140
150
152
176
208
227
237
239
225
213
204
169
93
9
-61
-122
-178
-201
-199
-206
-218
-223
-234
-232
-206
-192
-192
-183
-161
-145
-138
-126
-115
-107
-98
-82
-68
-68
-77
-82
-79
-70
-58
-53
-56
-53
-37
-28
-25
-21
-16
-16
-14
0
11
11
7
11
16
18
28
37
30
28
39
44
39
44
44
37
18
4
7
25
51
68
63
63
63
46
30
42
56
51
46
53
30
-18
-42
-56
-68
112
666
1340
1314
349
-293
-42
89
-112
-103
-14
-68
-96
-61
-46
-37
-21
-9
2
18
32
42
65
86
89
84
103
133
154
171
197
218
234
260
291
319
331
328
314
281
206
115
32
-53
-147
-190
-197
-208
-213
-215
-223
-211
-194
-187
-180
-171
-166
-159
-138
-122
-122
-138
-143
-126
-117
-115
-103
-112
-133
-119
-100
-103
-100
-91
-84
-79
-79
-75
-70
-77
-68
-51
-46
-37
-25
-30
-32
-16
-4
-2
2
4
4
7
14
18
9
0
9
32
61
82
79
61
51
53
53
53
39
28
28
32
42
51
49
14
-7
124
591
1244
1314
389
-385
-129
173
-2
-53
16
-42
-63
-2
2
-9
16
35
39
53
72
84
79
84
103
112
110
126
150
169
192
227
258
277
291
305
319
323
316
284
206
117
42
-25
-84
-122
-143
-157
-154
-147
-157
-164
-164
-166
-176
-178
-166
-154
-154
-147
-133
-131
-129
-115
-110
-110
-98
-86
-84
-84
-82
-77
-75
-63
-51
-53
-77
-89
-75
-63
-61
-51
-49
-51
-37
-23
-28
-37
-35
-25
-18
-11
-2
-4
-9
0
9
9
11
16
-7
-37
-28
-4
11
35
44
37
42
42
32
23
25
35
37
35
39
46
37
18
-7
-28
138
673
1375
1432
500
-225
-28
129
-77
-91
-2
-35
-44
0
-2
-7
21
35
35
44
32
14
32
65
75
84
105
126
143
154
185
215
230
253
284
293
293
302
293
251
192
122
37
-32
-82
-115
-140
-145
-138
-140
-154
-161
-161
-178
-199
-190
-176
-180
-173
-154
-154
-164
-152
-136
-131
-122
-105
-100
-107
-100
-89
-86
-82
-72
-72
-72
-61
-49
-49
-49
-39
-32
-32
-25
-11
-16
-42
-49
-32
-25
-23
-11
-21
-32
-21
-4
-7
-4
0
2
4
14
25
21
11
14
16
14
39
77
77
61
68
82
68
49
51
56
51
58
65
58
53
58
46
-2
-23
159
680
1357
1422
502
-241
-61
103
-100
-119
-21
-49
-68
-28
-14
-16
0
21
28
30
42
63
79
89
93
86
86
112
138
140
138
159
192
220
244
272
288
286
277
260
208
126
44
-28
-89
-129
-157
-180
-199
-208
-201
-192
-190
-178
-173
-176
-166
-150
-140
-133
-126
-143
-152
-129
-107
-107
-103
-93
-98
-115
-117
-100
-96
-105
-96
-82
-79
-72
-58
-58
-61
-44
-30
-35
-32
-21
-16
-14
-4
-4
-35
-58
-44
-39
-58
-51
-30
-39
-44
-21
-4
-2
-4
-4
-4
2
11
18
14
4
21
58
75
70
68
65
63
56
46
46
56
58
56
53
53
49
32
2
-37
23
403
1098
1514
899
-119
-218
133
32
-105
-23
-32
-93
-51
-14
-30
-16
16
16
11
23
30
28
49
77
84
86
91
91
98
133
176
201
225
251
277
298
305
300
274
208
122
39
-35
-105
-152
-190
-223
-225
-204
-201
-211
-199
-183
-180
-171
-145
-131
-133
-131
-126
-129
-117
-100
-98
-96
-79
-65
-68
-68
-58
-53
-56
-51
-44
-42
-42
-35
-25
-23
-18
-14
-25
-49
-46
-28
-25
-28
-21
-14
-14
-30
-56
-65
-56
-44
-35
-30
-25
-21
-18
-16
-7
4
4
4
7
11
35
65
72
56
46
68
75
44
35
53
49
37
49
61
58
53
30
-21
-16
251
878
1439
1101
49
-323
51
103
-84
-44
-4
-53
-35
-2
-14
-11
9
14
23
44
53
53
70
93
110
122
131
129
126
126
112
117
150
176
178
185
213
230
215
176
119
44
-35
-96
-140
-178
-194
-190
-190
-190
-176
-169
-169
-154
-133
-122
-119
-110
-96
-84
-84
-89
-86
-82
-72
-58
-51
-46
-39
-39
-42
-32
-21
-16
-18
-18
-14
-14
-9
2
2
-4
4
18
18
18
25
25
21
32
44
42
30
18
16
16
-4
-16
-7
-4
-4
7
9
11
18
7
-16
-9
4
-2
-4
4
16
39
61
61
49
53
65
58
39
39
49
42
25
21
23
28
21
-11
-46
89
575
1281
1479
638
-211
-110
98
-91
-140
-49
-75
-89
-42
-32
-37
-18
-18
-28
-16
-11
-18
-9
9
28
39
46
58
72
91
112
112
117
152
187
204
225
246
253
239
197
136
61
-14
-65
-110
-161
-187
-173
-169
-171
-159
-150
-147
-136
-117
-100
-103
-110
-105
-93
-84
-70
-58
-58
-51
-35
-28
-23
-18
-16
-21
-14
-4
-7
-9
-4
0
2
4
14
18
14
16
25
30
30
35
37
30
23
25
30
28
28
35
30
7
2
11
9
9
18
23
25
32
30
25
32
39
37
32
37
42
53
82
93
75
63
77
86
63
35
35
25
2
4
18
7
-4
-11
-53
-61
185
788
1420
1256
255
-262
0
53
-136
-107
-46
-93
-98
-72
-84
-86
-70
-61
-51
-32
-28
-32
-18
4
18
37
63
72
75
82
96
119
152
178
201
225
248
262
260
237
197
131
51
-14
-61
-103
-126
-129
-131
-133
-124
-117
-124
-129
-115
-105
-105
-100
-91
-98
-105
-91
-77
-82
-77
-56
-51
-53
-42
-35
-39
-35
-21
-16
-21
-28
-21
-11
-9
-2
0
-4
2
14
7
-7
2
11
4
9
21
21
16
9
-11
-25
-14
-4
-9
-11
-2
9
9
9
21
18
14
23
25
28
35
30
35
65
89
75
49
42
56
56
35
32
44
35
14
16
23
16
4
-28
-68
70
586
1260
1265
305
-403
-136
93
-86
-112
-51
-103
-110
-70
-65
-70
-61
-58
-56
-35
-11
-2
2
16
39
68
96
110
110
112
138
171
199
230
260
284
305
316
326
312
255
173
91
16
-51
-98
-131
-147
-147
-157
-171
-161
-145
-140
-126
-107
-98
-98
-91
-77
-68
-56
-42
-35
-42
-37
-23
-16
-16
-16
-18
-21
-16
-7
-2
-2
-4
-11
-23
-28
-21
-35
-56
-44
-23
-25
-30
-16
-7
-11
-11
4
11
4
-9
-28
-35
-23
-11
-14
-16
-9
-2
-2
-4
7
32
51
56
53
56
63
46
9
-9
7
25
21
7
7
9
2
-14
-53
-25
307
990
1457
922
-100
-274
84
23
-124
-39
-23
-86
-65
-39
-63
-58
-35
-37
-32
-11
-9
-18
-2
16
11
9
32
65
82
96
124
154
178
206
237
237
223
237
246
213
157
86
4
-56
-89
-117
-143
-154
-147
-143
-140
-131
-136
-147
-138
-115
-107
-103
-89
-82
-77
-63
-49
-42
-42
-37
-28
-21
-21
-14
-9
-11
-11
-2
-2
-4
2
7
4
7
18
21
16
14
2
-9
-2
14
14
7
14
25
25
25
30
21
0
-4
11
21
7
-16
-23
-16
-16
-16
-11
4
35
51
42
42
56
44
21
18
18
7
4
11
11
18
30
23
-28
-28
241
866
1467
1197
169
-255
28
32
-143
-91
-42
-84
-70
-35
-32
-23
-16
-30
-28
-18
-21
-16
-11
-16
-4
23
46
61
82
105
124
147
178
208
227
241
258
269
260
225
150
46
-42
-93
-136
-173
-190
-194
-199
-190
-171
-159
-159
-161
-164
-159
-145
-129
-122
-122
-110
-89
-79
-75
-65
-58
-56
-46
-32
-28
-30
-28
-18
-14
-11
-4
0
-4
-4
7
9
7
14
16
11
9
4
-2
-2
2
7
11
16
23
25
21
23
35
35
32
42
44
35
35
39
21
-11
2
46
58
46
51
61
42
25
28
16
-9
-18
-18
-23
-11
7
-2
-49
-51
187
779
1420
1274
272
-262
7
56
-147
-112
-35
-86
-91
-44
-37
-37
-18
-7
-2
9
28
44
49
35
30
42
53
61
82
103
122
152
180
192
211
241
260
260
265
251
192
110
32
-32
-96
-150
-183
-199
-201
-185
-173
-171
-164
-159
-157
-145
-145
-147
-138
-129
-119
-119
-131
-115
-91
-103
-110
-84
-68
-75
-65
-53
-56
-51
-37
-30
-35
-39
-32
-18
-9
-9
-16
-16
0
14
7
2
0
-4
-9
-2
7
9
11
14
21
23
16
18
32
21
2
23
61
79
79
68
65
63
25
-16
-4
11
4
0
9
23
30
18
-14
-53
39
490
1166
1295
406
-429
-215
143
-7
-82
14
7
-16
21
32
14
18
25
14
16
37
39
44
72
96
103
119
150
169
178
197
223
239
246
267
288
293
298
300
272
218
140
42
-51
-110
-145
-178
-204
-208
-192
-190
-192
-178
-173
-192
-190
-166
-159
-152
-129
-112
-110
-117
-112
-100
-91
-77
-65
-70
-75
-65
-53
-49
-42
-30
-35
-39
-23
-11
-11
-9
-7
-7
0
9
14
9
9
14
0
-23
-18
-4
-16
-30
-14
-7
-25
-28
-11
9
37
56
46
39
42
35
25
28
39
42
30
30
49
56
49
23
-14
103
575
1249
1401
547
-281
-131
119
-75
-131
-32
-61
-82
-28
-18
-25
0
14
11
25
44
53
53
58
70
86
103
126
145
154
173
206
230
246
272
291
302
316
316
277
197
100
0
-93
-152
-180
-208
-227
-225
-218
-213
-201
-190
-190
-185
-166
-150
-145
-136
-126
-119
-110
-93
-79
-82
-86
-93
-110
-110
-89
-82
-96
-103
-86
-72
-72
-68
-58
-53
-46
-35
-25
-25
-25
-16
-7
-7
2
11
7
7
18
23
23
25
30
28
30
39
42
35
25
18
9
11
35
65
70
61
65
68
51
42
35
2
-28
-16
-2
-7
-2
7
-23
-63
35
448
1133
1514
875
-86
-150
122
-30
-154
-70
-61
-100
-79
-53
-51
-37
-16
-2
9
18
32
51
70
86
98
100
107
133
164
183
199
223
248
274
295
319
326
312
293
262
190
91
4
-72
-140
-166
-171
-185
-192
-180
-176
-178
-166
-147
-147
-150
-138
-124
-117
-105
-96
-112
-131
-115
-96
-93
-89
-79
-75
-68
-56
-49
-53
-70
-84
-91
-98
-89
-77
-77
-72
-56
-46
-39
-30
-25
-23
-21
-9
2
0
-4
2
11
14
23
30
18
18
35
42
32
23
11
16
46
82
77
42
35
39
23
14
28
32
23
28
44
49
46
46
28
-28
37
460
1166
1493
793
-166
-185
145
23
-93
-11
-2
-30
-14
-16
-30
-32
-42
-32
-2
16
21
28
46
70
93
124
136
131
161
204
215
232
274
300
316
342
361
356
331
277
194
93
-4
-89
-152
-204
-237
-255
-277
-274
-253
-248
-258
-237
-211
-213
-201
-176
-164
-159
-147
-133
-136
-138
-117
-93
-91
-91
-82
-77
-77
-72
-65
-49
-44
-56
-58
-44
-32
-44
-75
-93
-77
-61
-58
-49
-37
-56
-77
-61
-49
-61
-58
-35
-7
18
21
16
23
16
2
11
21
16
23
28
23
32
46
35
-4
-14
227
840
1347
925
-115
-406
32
107
-63
-9
32
-21
-4
42
42
46
63
63
68
91
112
122
126
133
154
178
194
220
241
253
272
298
309
321
326
323
331
326
300
248
161
53
-28
-86
-133
-159
-173
-192
-190
-176
-187
-204
-190
-190
-204
-187
-178
-187
-180
-164
-159
-157
-150
-150
-154
-154
-140
-126
-119
-112
-103
-103
-103
-89
-72
-70
-68
-61
-51
-42
-35
-23
-23
-28
-21
-7
-2
2
14
9
2
14
28
23
2
-14
-9
16
42
39
4
-9
7
0
-11
2
18
11
7
18
28
30
28
-2
-32
129
647
1349
1467
565
-223
-56
119
-91
-115
-25
-70
-93
-49
-42
-44
-28
-16
-9
14
30
35
44
63
79
98
124
145
154
173
206
237
258
286
312
326
340
354
354
316
239
145
58
-21
-86
-129
-152
-159
-154
-157
-180
-187
-173
-164
-154
-143
-140
-152
-154
-154
-157
-150
-136
-133
-138
-124
-105
-96
-89
-82
-79
-84
-77
-63
-61
-72
-86
-91
-96
-100
-86
-79
-86
-77
-56
-53
-46
-35
-35
-39
-28
-14
-11
-14
-11
-18
-28
-16
11
32
44
49
53
49
39
37
37
32
28
28
32
32
35
37
4
-56
11
410
1103
1497
861
-103
-164
105
-42
-143
-30
-18
-61
-28
-4
-11
2
25
37
42
49
63
84
93
96
110
124
138
164
192
211
232
255
265
272
295
323
328
316
300
253
169
86
11
-53
-96
-110
-129
-150
-150
-140
-143
-143
-133
-122
-117
-129
-131
-115
-105
-98
-91
-86
-91
-115
-143
-152
-150
-152
-145
-133
-124
-119
-119
-115
-105
-98
-91
-75
-75
-84
-77
-65
-58
-49
-39
-39
-49
-46
-35
-25
-30
-35
-32
-30
-23
-16
-18
-21
9
49
51
39
46
25
-18
-16
7
7
0
7
14
14
18
7
-32
4
359
1051
1504
936
-107
-272
86
28
-117
-44
-21
-53
-35
-35
-42
-18
-9
-7
18
42
44
58
84
96
110
143
164
173
199
237
260
277
309
354
377
368
370
382
359
295
213
115
14
-51
-91
-124
-143
-150
-157
-152
-140
-129
-124
-126
-129
-126
-122
-105
-96
-98
-89
-72
-72
-75
-63
-61
-68
-70
-63
-72
-103
-117
-105
-110
-131
-122
-110
-124
-152
-157
-138
-126
-129
-126
-117
-103
-91
-84
-82
-82
-84
-84
-72
-44
-9
4
0
2
-4
-28
-35
-28
-21
-14
-4
-2
-2
0
9
-9
-37
112
622
1260
1249
309
-375
-91
150
-39
-70
21
-2
-18
18
25
28
44
53
63
68
63
75
100
112
122
138
143
138
159
197
215
232
246
241
251
286
314
316
298
260
201
117
32
-30
-79
-115
-126
-131
-136
-131
-129
-136
-133
-115
-100
-112
-122
-107
-91
-89
-82
-75
-82
-84
-68
-56
-53
-51
-49
-51
-49
-44
-56
-70
-79
-84
-86
-86
-79
-75
-79
-77
-68
-79
-93
-79
-70
-75
-65
-51
-51
-58
-53
-42
-39
-37
-39
-72
-122
-115
-61
-39
-39
-32
-30
-42
-46
-32
-23
-23
-23
-16
-9
0
4
-21
-84
-42
319
993
1490
1018
-7
-230
93
21
-136
-56
-23
-61
-32
-2
-4
0
11
23
42
53
63
75
84
96
119
143
159
176
194
204
213
237
272
293
307
326
345
342
323
286
208
115
42
-9
-53
-100
-140
-152
-140
-136
-126
-119
-126
-129
-136
-150
-150
-133
-131
-129
-119
-122
-131
-122
-107
-103
-96
-84
-72
-82
-96
-96
-98
-110
-105
-96
-105
-107
-91
-77
-75
-75
-70
-68
-61
-46
-35
-42
-49
-35
-21
-21
-16
-25
-49
-49
-37
-39
-37
-14
9
25
30
39
44
30
14
23
30
23
28
23
-4
-7
18
2
-51
7
361
1009
1490
1014
2
-208
100
2
-173
-105
-65
-107
-89
-51
-37
-30
-11
4
9
11
35
61
79
89
105
129
150
169
197
218
230
260
300
321
340
366
373
363
342
286
192
98
18
-44
-96
-124
-124
-129
-145
-136
-119
-131
-138
-129
-136
-138
-110
-93
-110
-129
-119
-110
-110
-96
-77
-79
-86
-84
-89
-98
-112
-131
-143
-136
-117
-110
-115
-117
-110
-110
-124
-124
-110
-110
-105
-89
-84
-93
-75
-49
-61
-75
-63
-56
-46
-28
-2
16
23
30
23
-2
-14
-14
-16
-14
-2
2
0
4
16
-9
-37
126
640
1246
1169
199
-441
-105
154
-21
-44
28
-25
-51
-9
-2
7
37
42
42
61
75
79
89
100
107
119
143
173
197
220
248
265
286
326
361
373
380
387
370
328
258
164
65
-7
-58
-110
-143
-147
-150
-159
-147
-126
-117
-124
-140
-157
-147
-129
-115
-100
-96
-98
-91
-82
-72
-61
-58
-68
-65
-53
-53
-63
-68
-79
-93
-93
-110
-136
-129
-115
-115
-107
-91
-82
-82
-89
-96
-96
-89
-82
-75
-79
-82
-61
-32
-9
7
4
0
2
-2
-9
-7
-7
-2
4
7
16
25
9
-30
-35
176
737
1380
1288
302
-281
0
105
-126
-131
-37
-70
-79
-30
-18
-32
-14
14
23
32
49
61
68
84
107
126
138
152
183
204
199
206
237
258
272
305
328
328
302
255
187
107
35
-21
-70
-100
-110
-115
-117
-105
-98
-103
-98
-86
-91
-96
-86
-79
-82
-72
-58
-51
-53
-51
-44
-35
-30
-23
-18
-32
-56
-63
-65
-77
-84
-93
-115
-115
-98
-91
-96
-91
-84
-79
-72
-56
-53
-58
-49
-37
-37
-32
-25
-37
-53
-63
-63
-37
-9
-4
-7
-7
-23
-32
-25
-23
-21
-9
-7
-4
4
9
-16
-56
32
436
1122
1509
873
-96
-157
136
-11
-131
-28
-18
-58
-18
11
-4
0
28
44
44
42
49
65
77
93
117
136
150
173
199
213
239
269
274
269
300
326
321
314
295
239
159
79
11
-42
-82
-112
-145
-166
-157
-145
-154
-161
-143
-131
-131
-122
-122
-129
-119
-98
-98
-100
-86
-72
-70
-68
-58
-51
-53
-51
-39
-35
-46
-51
-56
-68
-72
-68
-75
-77
-63
-53
-68
-75
-65
-58
-65
-65
-44
-32
-32
-30
-28
-28
-21
-23
-39
-39
-18
4
28
42
46
51
35
9
7
4
-7
-2
2
-11
-28
-32
-44
-86
-96
122
704
1349
1227
220
-345
-37
82
-117
-91
-16
-68
-70
-16
-2
-7
-2
9
30
51
56
65
84
96
110
143
161
171
194
213
227
267
305
316
338
361
373
380
368
323
246
147
56
-14
-70
-103
-110
-124
-138
-129
-115
-115
-110
-96
-93
-91
-75
-65
-75
-86
-96
-117
-129
-115
-110
-129
-131
-115
-112
-112
-100
-96
-98
-98
-98
-98
-105
-117
-115
-103
-103
-96
-82
-84
-86
-70
-61
-58
-61
-63
-58
-53
-53
-56
-46
-21
7
11
7
11
4
-14
-7
9
11
11
18
18
16
23
9
-23
63
478
1133
1335
537
-323
-187
145
9
-61
32
14
-16
2
-23
-37
0
14
7
23
46
56
68
93
107
107
129
150
147
154
187
211
227
260
293
309
319
331
321
279
218
147
61
-18
-70
-110
-147
-150
-143
-150
-147
-129
-117
-115
-103
-91
-84
-77
-65
-68
-77
-77
-63
-58
-53
-46
-42
-49
-49
-39
-30
-30
-32
-32
-32
-39
-51
-68
-91
-110
-124
-131
-126
-112
-107
-110
-103
-86
-82
-82
-72
-63
-63
-58
-44
-42
-58
-68
-53
-46
-39
-9
4
-11
-16
-9
-9
-9
-7
-21
-37
-28
-7
-2
-7
-30
-63
32
448
1148
1514
828
-122
-131
138
-30
-122
-18
-28
-61
-14
7
-4
11
30
32
42
63
75
77
86
96
96
112
140
152
150
157
187
218
239
262
291
305
309
312
291
230
154
82
9
-42
-70
-100
-126
-117
-103
-105
-105
-98
-107
-136
-147
-147
-154
-154
-136
-119
-119
-107
-93
-91
-91
-75
-63
-63
-61
-68
-79
-84
-86
-89
-89
-91
-84
-75
-72
-65
-56
-58
-63
-51
-39
-37
-44
-51
-58
-53
-39
-30
-32
-44
-63
-72
-63
-49
-44
-56
-63
-46
-23
0
25
35
25
25
30
23
21
23
30
32
35
44
51
44
16
-35
0
331
993
1507
1042
0
-234
84
0
-152
-63
-32
-77
-39
-7
-23
-11
21
25
32
51
61
68
89
115
126
136
152
173
194
208
218
227
246
277
302
316
323
333
305
234
161
98
18
-49
-84
-107
-133
-150
-147
-145
-150
-143
-129
-122
-122
-115
-112
-110
-98
-84
-79
-84
-100
-112
-107
-107
-115
-122
-124
-112
-98
-98
-98
-93
-105
-124
-115
-96
-96
-96
-89
-84
-77
-61
-49
-46
-46
-35
-28
-28
-16
-4
-9
-23
-32
-30
-23
-14
-7
-4
-2
7
9
-11
-42
-35
0
25
37
46
49
37
28
23
25
35
39
37
37
51
63
53
18
-11
112
579
1256
1399
528
-288
-107
154
-35
-86
16
-16
-46
11
25
7
28
53
53
56
79
103
105
112
136
143
136
147
176
197
220
253
281
302
314
321
340
356
354
323
255
164
75
-4
-79
-147
-194
-204
-192
-192
-192
-183
-171
-164
-154
-143
-138
-145
-157
-159
-147
-138
-129
-122
-122
-126
-126
-129
-124
-117
-112
-110
-105
-93
-77
-79
-89
-77
-61
-58
-51
-42
-44
-37
-23
-21
-21
-14
-11
-7
-2
7
16
14
9
21
35
23
7
0
-16
-35
-16
18
37
35
35
37
30
23
18
2
-11
0
9
4
16
30
16
-18
-25
164
718
1340
1185
173
-363
-7
152
-53
-58
14
-18
-23
16
23
21
37
56
63
70
89
98
100
117
140
159
166
180
199
215
232
253
262
265
284
312
323
321
314
281
215
126
49
-14
-65
-103
-122
-138
-154
-159
-166
-185
-173
-152
-150
-164
-176
-180
-192
-187
-161
-152
-154
-143
-129
-126
-122
-103
-100
-110
-100
-82
-89
-96
-84
-77
-82
-72
-56
-51
-51
-42
-35
-32
-23
-11
-11
-14
-7
4
7
7
16
16
11
21
30
28
30
35
35
35
42
42
23
2
14
46
72
75
72
70
65
58
53
51
53
56
53
53
58
44
11
-23
-53
25
420
1112
1474
788
-161
-171
110
-51
-147
-44
-58
-103
-56
-28
-42
-25
0
4
11
32
46
46
53
65
75
89
107
124
140
159
185
211
225
241
265
279
288
298
284
227
150
70
-21
-96
-131
-157
-183
-183
-171
-169
-171
-169
-157
-150
-140
-126
-119
-122
-112
-100
-112
-126
-110
-96
-100
-91
-72
-68
-68
-65
-65
-79
-89
-77
-79
-93
-86
-68
-65
-63
-49
-44
-46
-32
-16
-16
-18
-14
-9
-2
4
16
16
9
11
23
28
32
39
32
28
39
49
42
37
32
11
16
58
79
61
53
65
61
37
39
56
51
42
53
61
61
61
53
11
-25
152
711
1385
1333
363
-258
-9
110
-91
-89
-9
-49
-68
-37
-25
-30
-39
-46
-37
-25
-18
-7
9
25
42
63
86
100
115
145
173
192
213
227
239
253
265
267
251
213
164
96
14
-58
-129
-185
-199
-194
-201
-204
-192
-187
-187
-173
-147
-140
-145
-136
-112
-103
-100
-82
-68
-75
-84
-100
-112
-98
-79
-84
-89
-75
-58
-56
-58
-56
-70
-86
-70
-44
-51
-63
-49
-32
-28
-25
-14
-25
-56
-53
-28
-28
-35
-21
-11
-14
-7
4
7
4
11
16
14
14
14
28
65
79
51
30
44
46
25
16
28
39
37
32
37
44
46
46
25
-11
112
619
1281
1286
333
-385
-117
131
-49
-70
16
-21
-32
14
23
16
21
14
11
21
32
39
51
65
79
96
122
145
154
166
190
213
237
265
281
281
281
288
274
244
197
115
7
-77
-124
-159
-194
-213
-225
-232
-220
-199
-192
-190
-176
-154
-143
-136
-124
-117
-112
-96
-79
-70
-72
-68
-58
-51
-51
-46
-39
-51
-75
-70
-56
-53
-46
-39
-39
-37
-42
-51
-51
-42
-32
-30
-25
-9
-7
-18
-9
4
4
7
16
16
11
23
35
32
28
30
30
18
21
49
77
79
72
79
84
63
30
4
-7
-4
4
4
7
14
18
0
-42
7
349
1011
1493
1002
-11
-206
122
32
-126
-35
-2
-53
-32
-21
-61
-65
-42
-30
-28
-28
-28
-21
-2
18
39
51
65
91
117
136
157
171
173
190
204
208
213
215
208
180
124
51
-18
-82
-126
-145
-159
-171
-164
-157
-161
-164
-161
-157
-150
-143
-133
-119
-107
-93
-91
-112
-115
-91
-82
-79
-68
-63
-63
-56
-44
-37
-37
-37
-30
-25
-21
-9
-4
-23
-44
-35
-21
-30
-39
-42
-42
-30
-16
-11
-16
-14
-4
-4
0
14
16
11
14
25
28
23
23
16
18
46
79
84
70
75
79
63
51
63
72
58
42
46
51
53
53
21
-23
79
516
1209
1519
793
-126
-107
157
-7
-98
-7
-16
-53
-35
-21
-16
-7
-11
-11
0
7
-4
-16
0
21
23
37
58
72
98
126
145
176
206
211
211
220
225
223
211
166
91
18
-46
-100
-143
-169
-176
-178
-178
-169
-161
-161
-152
-136
-124
-119
-122
-126
-122
-100
-79
-72
-72
-72
-61
-49
-49
-44
-30
-30
-35
-25
-18
-14
-2
-2
-14
-9
7
9
-2
-2
4
-2
-18
-16
-30
-68
-75
-53
-44
-39
-32
-37
-44
-35
-18
-16
-14
-7
-7
-18
-21
-2
16
30
49
61
53
49
49
35
25
35
49
49
44
44
46
39
18
-21
-4
284
939
1460
1004
-46
-295
82
65
-93
-16
18
-39
-18
21
14
16
44
56
46
51
68
72
82
103
110
117
145
169
164
161
180
199
206
234
274
288
274
269
260
208
117
25
-56
-129
-176
-206
-230
-230
-225
-234
-230
-204
-187
-190
-185
-164
-147
-140
-126
-112
-112
-117
-103
-89
-91
-86
-75
-70
-68
-58
-51
-51
-46
-37
-35
-39
-30
-18
-23
-23
-4
0
-2
7
11
2
7
21
21
14
18
23
21
11
-4
-30
-46
-37
-25
-21
-7
25
42
25
18
30
23
9
11
16
2
-11
-9
2
2
4
-11
-49
56
530
1206
1340
483
-319
-145
126
-46
-98
-2
-23
-42
-2
0
-2
25
37
42
58
65
72
93
112
122
133
136
138
152
178
201
215
230
253
281
295
307
316
300
260
215
143
23
-79
-131
-171
-213
-220
-208
-215
-220
-206
-194
-190
-176
-159
-154
-150
-131
-119
-115
-105
-98
-112
-122
-107
-91
-96
-98
-89
-84
-89
-77
-65
-75
-72
-53
-46
-42
-32
-25
-25
-21
-7
-2
-4
-4
4
9
9
18
28
21
18
32
37
32
35
37
32
30
23
9
0
18
56
65
37
18
18
4
-4
9
16
11
18
18
11
21
28
-11
-30
178
746
1413
1359
389
-225
9
105
-91
-79
-2
-42
-72
-68
-63
-46
-32
-28
-18
0
11
28
51
68
75
93
117
129
133
152
171
187
211
244
262
274
286
293
286
260
211
131
42
-30
-93
-152
-180
-194
-211
-213
-218
-234
-237
-220
-213
-208
-194
-178
-164
-157
-152
-138
-124
-117
-105
-93
-93
-91
-72
-63
-65
-63
-56
-51
-46
-44
-51
-61
-58
-44
-39
-39
-25
-21
-42
-56
-39
-25
-28
-25
-16
-14
-9
0
7
7
9
16
21
23
30
28
9
4
25
53
77
79
56
37
42
42
35
28
30
39
32
9
7
23
11
-28
-46
103
598
1298
1436
556
-225
-61
133
-68
-100
-7
-37
-53
-2
7
-9
2
14
9
21
39
44
53
79
105
117
126
143
159
166
180
211
234
246
272
300
295
277
277
258
197
122
44
-28
-86
-136
-171
-197
-218
-230
-232
-227
-215
-204
-197
-190
-176
-173
-180
-183
-180
-171
-161
-154
-138
-124
-115
-107
-103
-100
-91
-86
-86
-72
-58
-63
-56
-39
-35
-37
-44
-56
-53
-39
-30
-21
-18
-28
-21
-4
0
7
9
0
4
16
16
21
35
37
32
18
11
25
37
46
72
70
44
42
37
18
4
2
4
0
0
9
18
21
18
-11
-14
239
849
1324
887
-143
-431
-16
58
-96
-53
-9
-42
-28
4
4
16
37
44
58
77
86
89
86
96
115
140
166
183
197
213
223
244
279
312
335
349
356
368
359
305
223
126
25
-46
-91
-136
-171
-187
-208
-213
-194
-180
-183
-187
-192
-192
-180
-157
-145
-140
-133
-122
-119
-131
-131
-117
-129
-152
-143
-119
-119
-124
-112
-98
-93
-86
-75
-70
-72
-61
-42
-39
-37
-25
-21
-30
-35
-35
-32
-30
-18
-16
-16
-7
-2
-9
-11
7
42
63
65
58
51
37
35
44
51
51
49
44
46
58
65
39
-7
82
516
1187
1413
629
-265
-169
161
14
-77
18
7
-28
11
35
35
35
18
2
4
4
18
42
44
53
84
107
119
138
161
180
206
232
246
253
260
274
286
281
265
220
126
37
-23
-75
-112
-131
-145
-159
-169
-166
-171
-183
-176
-161
-159
-150
-129
-126
-131
-119
-100
-98
-91
-77
-75
-82
-84
-77
-72
-70
-68
-63
-58
-51
-39
-37
-39
-32
-23
-21
-23
-39
-61
-61
-42
-35
-32
-28
-25
-30
-42
-39
-25
-25
-32
-21
-7
-18
-37
-37
-25
-9
23
49
44
42
42
28
18
30
39
35
32
39
46
46
44
14
-9
176
725
1413
1425
469
-204
14
131
-72
-65
7
-51
-58
-7
-7
-2
23
23
23
46
63
70
82
96
107
122
138
133
122
140
178
199
218
251
265
260
267
286
277
241
190
110
16
-58
-103
-145
-194
-208
-192
-190
-199
-194
-194
-206
-206
-187
-178
-176
-166
-159
-157
-143
-122
-115
-115
-107
-96
-91
-84
-72
-68
-72
-65
-51
-56
-63
-51
-49
-56
-42
-23
-23
-25
-16
-9
-7
0
11
14
7
11
14
-4
-16
-2
0
-9
4
18
14
7
2
0
9
37
70
70
46
49
53
37
32
42
25
2
11
28
25
23
21
-18
-30
194
779
1432
1324
340
-220
32
103
-91
-72
-4
-37
-32
2
0
0
11
11
23
42
46
56
77
93
105
126
145
152
171
201
223
239
262
288
302
300
279
265
255
223
171
96
9
-53
-96
-136
-152
-154
-166
-176
-161
-159
-173
-173
-166
-176
-183
-171
-157
-150
-140
-126
-122
-122
-110
-98
-112
-126
-115
-107
-110
-103
-89
-82
-82
-75
-63
-61
-58
-49
-58
-75
-63
-46
-49
-42
-25
-23
-28
-18
-7
-4
-4
2
4
7
18
28
21
14
14
0
-30
-37
-23
-14
9
44
49
32
37
35
4
-14
2
21
11
9
23
28
21
14
-11
-9
237
840
1411
1101
51
-340
46
110
-75
-21
28
-30
-16
30
32
39
51
37
25
44
46
42
58
82
96
115
145
173
187
199
223
258
291
316
328
328
338
354
345
298
225
129
14
-84
-133
-150
-180
-211
-204
-194
-204
-211
-223
-239
-225
-199
-194
-190
-173
-171
-164
-140
-126
-124
-122
-117
-105
-91
-93
-91
-82
-84
-75
-56
-53
-51
-37
-35
-44
-42
-25
-18
-18
-23
-32
-37
-23
-9
-14
-21
-14
-4
-18
-37
-35
-32
-35
-9
32
46
32
37
35
14
11
32
32
9
-7
-16
-16
-4
0
-30
-42
169
730
1295
1068
58
-410
-39
98
-84
-63
0
-35
-25
4
4
14
35
35
44
70
89
93
103
112
126
147
173
185
194
218
246
265
286
300
298
298
312
316
300
262
190
98
14
-44
-86
-124
-147
-152
-161
-180
-180
-180
-192
-192
-185
-185
-180
-169
-173
-201
-206
-176
-159
-161
-161
-166
-169
-157
-140
-133
-138
-131
-112
-100
-98
-89
-82
-79
-70
-56
-46
-44
-39
-30
-25
-21
-9
-4
-9
-4
11
14
9
21
25
21
16
9
-4
-14
-11
4
30
56
68
65
56
49
44
42
44
49
46
46
58
65
63
35
-9
44
392
1051
1516
983
-51
-237
86
-11
-166
-89
-75
-122
-79
-39
-44
-37
-18
-9
2
21
37
46
53
75
98
115
133
157
173
187
211
239
258
277
293
295
293
300
293
248
164
68
-11
-63
-100
-126
-147
-154
-145
-138
-143
-150
-152
-157
-161
-147
-133
-136
-138
-126
-115
-112
-103
-93
-93
-91
-79
-72
-77
-89
-112
-136
-145
-147
-143
-138
-133
-119
-103
-100
-89
-75
-75
-68
-49
-39
-39
-30
-23
-25
-18
-4
2
0
2
11
21
21
25
25
18
14
18
28
37
51
68
65
58
65
61
42
42
53
56
53
63
68
61
61
51
4
32
349
997
1533
1141
122
-171
122
63
-98
-25
11
-32
-32
-42
-61
-37
-14
-11
-2
2
-7
2
32
51
56
77
103
122
140
166
190
204
227
251
258
269
288
284
255
230
178
98
21
-37
-79
-112
-140
-150
-152
-164
-171
-164
-171
-178
-164
-159
-161
-147
-131
-124
-122
-122
-117
-105
-86
-75
-79
-82
-70
-58
-56
-49
-44
-53
-58
-44
-35
-44
-65
-63
-53
-51
-39
-21
-23
-32
-21
-4
-2
-2
4
4
7
18
28
23
23
25
7
-11
2
11
-2
-11
2
25
49
65
65
58
44
28
23
32
37
32
30
42
51
51
46
21
-16
96
570
1260
1418
556
-274
-110
171
0
-58
18
-14
-30
21
35
25
39
53
53
44
42
32
30
58
91
103
117
140
161
183
211
248
274
286
298
314
333
338
335
309
241
152
72
-9
-79
-122
-159
-199
-204
-192
-206
-223
-218
-218
-225
-208
-190
-185
-183
-164
-152
-150
-136
-117
-124
-131
-107
-93
-100
-96
-82
-84
-82
-63
-61
-68
-63
-51
-44
-44
-39
-32
-42
-51
-42
-56
-86
-79
-58
-63
-58
-37
-28
-35
-37
-28
-28
-32
-14
18
37
44
46
44
35
23
23
30
32
37
42
39
37
42
32
-11
-18
190
730
1305
1129
133
-375
-21
115
-89
-68
16
-25
-35
2
9
11
30
46
56
61
70
86
100
112
129
143
152
169
192
204
206
225
241
239
234
253
272
265
253
230
169
89
16
-49
-100
-122
-131
-143
-159
-169
-169
-173
-173
-161
-157
-159
-147
-129
-126
-122
-110
-119
-124
-107
-91
-91
-89
-82
-79
-75
-63
-56
-56
-61
-56
-51
-63
-70
-58
-53
-56
-44
-32
-30
-25
-18
-16
-14
-7
2
4
0
0
-7
-21
-16
-7
-18
-49
-75
-68
-37
-9
9
14
11
14
11
0
2
14
18
16
21
30
30
25
-2
-28
117
605
1307
1472
617
-173
-53
105
-93
-119
-23
-51
-63
-18
-16
-18
9
23
25
39
51
56
70
93
112
119
131
150
154
152
176
208
218
225
248
269
277
279
260
215
166
107
28
-44
-98
-152
-199
-206
-194
-208
-223
-215
-211
-213
-204
-192
-190
-187
-169
-154
-150
-145
-136
-126
-117
-105
-91
-89
-91
-89
-91
-100
-93
-79
-79
-82
-63
-49
-49
-46
-39
-35
-28
-18
-9
-7
-9
-4
4
9
14
21
16
16
25
32
30
28
25
4
-16
-11
2
7
14
23
25
14
7
11
9
-11
-18
-7
0
2
7
0
-42
-37
206
788
1411
1253
262
-237
49
96
-112
-77
0
-39
-35
2
-16
-28
0
16
23
37
46
56
72
96
117
131
140
157
183
204
227
255
277
291
307
328
335
321
298
267
211
129
46
-16
-63
-100
-133
-157
-152
-143
-147
-147
-147
-145
-140
-154
-187
-208
-218
-208
-192
-187
-190
-176
-152
-147
-145
-126
-119
-122
-105
-86
-86
-91
-89
-79
-72
-75
-75
-75
-70
-61
-49
-44
-44
-35
-25
-28
-18
-2
-2
-4
4
11
7
11
25
25
11
9
16
30
56
86
82
63
68
72
58
49
39
21
21
37
39
35
37
21
-14
65
485
1159
1361
516
-385
-239
129
-7
-96
-18
-49
-72
-16
-4
-21
9
35
32
46
70
70
68
79
93
110
131
152
171
201
227
248
277
302
323
345
363
377
377
342
269
178
84
2
-56
-103
-136
-147
-143
-140
-147
-145
-129
-119
-126
-131
-126
-131
-138
-129
-124
-129
-122
-115
-115
-107
-96
-91
-100
-122
-140
-138
-126
-112
-103
-105
-96
-82
-75
-72
-65
-70
-86
-82
-63
-61
-77
-84
-75
-63
-56
-46
-39
-42
-37
-32
-37
-28
0
23
39
44
44
39
32
23
25
32
42
46
42
39
46
51
21
-14
126
617
1293
1413
528
-260
-79
152
-42
-91
9
-9
-35
0
16
16
28
39
49
42
28
44
72
82
93
112
126
143
166
192
211
227
255
284
305
312
316
305
274
255
213
117
18
-49
-98
-133
-147
-150
-159
-159
-147
-138
-136
-124
-112
-115
-110
-100
-105
-112
-115
-119
-117
-110
-98
-89
-93
-110
-105
-93
-89
-79
-77
-84
-77
-63
-58
-58
-49
-42
-46
-44
-28
-18
-28
-53
-68
-56
-42
-37
-32
-32
-28
-14
-9
-9
-2
-4
-23
-35
-16
9
28
42
46
42
37
32
28
25
28
32
18
4
14
21
7
-25
-32
169
730
1401
1361
387
-232
14
112
-100
-84
4
-44
-61
-16
-14
-23
2
23
23
37
53
58
70
89
112
124
136
157
178
197
218
230
220
232
272
298
302
305
302
267
201
119
28
-56
-110
-131
-147
-161
-157
-147
-154
-154
-138
-124
-122
-115
-103
-107
-117
-110
-103
-122
-131
-115
-112
-126
-124
-112
-119
-115
-93
-89
-96
-89
-79
-89
-93
-77
-63
-65
-70
-61
-46
-44
-35
-25
-28
-23
-4
0
-7
-2
11
7
2
11
11
-9
-16
-14
-25
-30
-4
23
39
58
65
46
28
23
23
18
25
35
32
32
44
51
44
7
-14
164
694
1359
1352
396
-274
-16
152
-53
-58
30
-11
-25
21
23
14
37
61
56
46
65
84
68
65
98
115
115
143
180
197
213
244
272
295
316
345
366
361
345
321
241
115
9
-61
-124
-159
-166
-178
-187
-187
-194
-199
-176
-154
-154
-154
-145
-143
-145
-145
-145
-143
-133
-122
-119
-115
-103
-100
-110
-103
-86
-79
-84
-86
-77
-68
-63
-53
-46
-51
-46
-39
-49
-61
-46
-35
-42
-39
-25
-16
-16
-16
-14
-28
-35
-21
-16
-42
-46
-16
14
39
51
39
32
32
0
-30
-21
-9
-11
-7
0
7
-2
-21
-44
-61
86
596
1253
1251
307
-368
-79
140
-53
-75
18
-14
-30
16
25
16
37
56
61
72
91
96
100
122
145
157
166
180
187
192
215
246
265
281
309
340
349
349
347
309
237
154
58
-25
-75
-103
-138
-173
-180
-164
-161
-164
-152
-143
-154
-159
-143
-140
-154
-154
-154
-169
-164
-150
-150
-147
-131
-119
-122
-122
-112
-103
-98
-91
-84
-84
-82
-63
-56
-58
-51
-42
-37
-30
-18
-14
-16
-16
-7
2
0
2
-2
-16
-14
2
4
2
11
14
7
2
7
18
35
58
72
70
68
70
56
37
44
65
65
56
58
65
63
39
-16
-49
107
626
1307
1347
420
-279
-70
82
-122
-126
-37
-72
-79
-32
-28
-25
2
16
16
25
42
53
70
93
107
112
131
157
176
192
218
237
251
272
288
291
284
279
277
255
204
131
51
-23
-68
-93
-122
-140
-138
-138
-140
-136
-138
-152
-157
-157
-152
-145
-133
-126
-122
-122
-117
-131
-147
-145
-145
-173
-185
-164
-145
-147
-140
-129
-124
-115
-100
-89
-86
-84
-72
-58
-56
-46
-32
-35
-37
-23
-11
-11
-7
0
2
4
14
21
18
9
0
-4
-2
-4
-7
-4
14
53
70
56
58
61
44
35
49
56
49
49
53
56
58
61
32
-16
91
556
1260
1514
741
-131
-89
110
-84
-147
-51
-72
-93
-49
-32
-30
-9
-2
2
18
21
11
25
46
53
75
107
124
133
154
183
201
218
234
253
267
279
291
293
265
197
112
32
-32
-82
-119
-150
-159
-166
-178
-178
-180
-194
-199
-180
-169
-169
-159
-143
-143
-145
-129
-112
-112
-105
-91
-84
-82
-70
-61
-61
-75
-96
-105
-98
-86
-79
-72
-70
-63
-51
-44
-44
-39
-30
-25
-21
-16
-11
-11
-4
9
9
7
9
-4
-23
-14
-2
-14
-25
-21
-4
21
42
42
30
30
28
14
11
25
32
28
28
28
28
35
35
-4
-7
267
903
1453
1087
37
-300
75
93
-86
-23
14
-37
-4
32
4
-4
-2
-18
-14
16
32
37
53
75
91
105
131
159
178
201
232
258
274
281
298
323
345
352
333
277
194
107
18
-53
-100
-136
-173
-199
-206
-223
-246
-253
-253
-241
-220
-213
-211
-199
-183
-171
-161
-147
-136
-133
-136
-126
-112
-115
-110
-96
-98
-98
-79
-72
-77
-72
-63
-56
-58
-65
-56
-58
-82
-79
-58
-56
-51
-37
-35
-42
-32
-23
-28
-32
-14
18
39
42
39
42
28
21
25
23
28
42
37
30
42
51
30
-18
18
359
997
1349
713
-267
-319
107
56
-103
-25
7
-44
-28
16
23
23
39
51
58
70
86
103
115
126
143
161
178
197
223
234
244
269
302
312
305
307
319
309
272
220
133
30
-46
-103
-143
-159
-166
-178
-176
-166
-164
-157
-143
-143
-150
-145
-140
-147
-147
-136
-126
-129
-133
-124
-115
-119
-115
-98
-96
-96
-84
-84
-84
-75
-65
-63
-63
-56
-53
-72
-82
-63
-53
-63
-61
-42
-42
-42
-28
-25
-30
-21
-11
-28
-49
-35
-11
11
32
23
-16
-30
-23
-23
-23
-14
-7
-7
-7
4
18
14
-25
-51
107
608
1298
1429
549
-227
-56
138
-68
-100
-4
-49
-79
-23
-7
-16
2
18
18
32
53
68
75
84
103
122
138
159
183
197
215
246
277
293
314
333
331
314
312
291
218
124
44
-25
-84
-122
-150
-173
-173
-159
-166
-187
-187
-176
-171
-164
-145
-131
-133
-126
-110
-107
-117
-110
-112
-129
-126
-105
-103
-103
-93
-96
-103
-91
-79
-84
-91
-84
-72
-68
-63
-49
-44
-51
-46
-28
-25
-25
-14
-11
-14
-9
2
4
2
-4
-11
-16
-4
18
42
51
51
58
56
42
32
4
-28
-25
-4
-9
-14
-4
2
-37
-93
35
521
1220
1434
624
-206
-105
105
-91
-147
-39
-49
-75
-32
-18
-25
-4
16
30
37
42
53
56
53
75
105
117
131
157
185
208
234
255
279
302
328
352
354
338
307
253
169
86
18
-42
-84
-96
-105
-112
-110
-112
-131
-131
-119
-131
-147
-138
-124
-119
-110
-93
-86
-89
-96
-110
-112
-107
-117
-136
-152
-164
-154
-140
-143
-145
-138
-131
-122
-112
-107
-103
-93
-79
-75
-70
-68
-84
-96
-79
-61
-61
-58
-49
-44
-39
-30
-18
-23
-37
-35
-18
-7
18
44
44
35
44
42
23
18
28
25
21
25
42
46
30
0
-39
30
450
1159
1425
640
-277
-204
131
2
-103
-44
-68
-84
-35
-25
-37
-11
14
21
30
46
46
42
61
89
98
112
145
171
190
213
239
258
279
309
342
366
375
375
345
267
178
86
-2
-65
-105
-131
-147
-150
-143
-145
-152
-150
-145
-140
-131
-122
-117
-105
-86
-79
-77
-70
-79
-89
-75
-61
-63
-75
-86
-89
-96
-107
-103
-96
-117
-133
-115
-105
-117
-110
-91
-86
-84
-72
-63
-63
-58
-49
-44
-44
-32
-35
-68
-91
-84
-72
-49
-16
-9
-23
-16
-4
-16
-23
-14
-4
-4
-2
14
23
14
4
-23
-14
262
915
1462
1068
25
-284
79
82
-98
-39
4
-49
-42
-16
-23
-14
16
23
30
49
61
65
84
110
119
119
115
122
147
176
201
232
255
279
309
328
342
347
321
262
190
110
30
-39
-96
-129
-138
-138
-138
-145
-159
-152
-136
-126
-119
-112
-124
-136
-117
-98
-98
-93
-79
-75
-70
-63
-68
-82
-93
-98
-96
-93
-89
-82
-86
-96
-100
-100
-96
-89
-84
-79
-72
-61
-51
-51
-49
-37
-30
-30
-35
-53
-70
-61
-42
-37
-35
-28
-25
-32
-35
-21
-4
11
35
49
49
46
32
14
9
18
30
35
35
39
39
37
32
-2
4
253
859
1500
1310
260
-241
44
63
-136
-77
-11
-61
-49
-11
-21
-14
16
30
28
25
35
53
68
86
103
110
129
161
180
199
227
253
272
300
333
345
333
319
314
281
213
133
46
-39
-98
-126
-145
-152
-145
-140
-150
-157
-147
-138
-136
-131
-119
-112
-103
-96
-103
-112
-112
-115
-112
-103
-98
-103
-105
-89
-77
-75
-75
-75
-86
-103
-98
-82
-82
-84
-68
-58
-63
-63
-61
-58
-53
-39
-35
-37
-28
-16
-16
-11
4
7
-2
-2
11
14
4
-16
-42
-46
-32
-7
25
37
30
37
39
21
18
32
25
9
18
30
23
28
39
4
-39
93
577
1270
1486
678
-197
-100
157
-25
-96
2
-14
-42
-2
14
9
25
44
46
58
72
86
98
98
98
117
143
161
180
201
208
218
258
291
295
316
359
366
335
305
251
152
51
-25
-98
-164
-194
-197
-208
-204
-180
-185
-192
-176
-178
-199
-206
-192
-183
-185
-173
-152
-143
-150
-147
-133
-112
-98
-98
-100
-96
-93
-91
-84
-72
-63
-63
-63
-56
-46
-37
-32
-30
-25
-23
-18
-4
-9
-28
-21
-2
-2
2
9
2
-2
4
18
16
9
11
9
14
42
51
37
25
23
18
7
-4
-7
-4
-2
7
16
16
-7
-39
75
561
1223
1263
326
-434
-169
140
-25
-68
25
-4
-25
21
32
25
44
61
65
75
89
103
115
131
145
159
178
199
218
232
258
288
305
319
352
375
377
382
370
323
248
157
56
-28
-84
-117
-147
-169
-161
-152
-154
-152
-140
-152
-180
-194
-211
-223
-211
-197
-192
-180
-166
-159
-164
-169
-154
-140
-138
-129
-117
-119
-117
-96
-84
-89
-89
-79
-72
-63
-46
-37
-42
-46
-35
-18
-16
-9
-4
-4
-2
9
14
14
16
9
-14
-30
-16
7
23
39
53
53
49
46
37
25
28
39
49
46
49
53
51
32
-2
35
354
1009
1535
1087
7
-262
86
9
-185
-96
-65
-133
-100
-58
-72
-58
-25
-16
-14
0
18
32
49
70
89
98
112
143
169
185
208
237
258
274
295
307
309
307
295
258
187
100
4
-79
-122
-133
-150
-164
-157
-154
-166
-171
-161
-169
-178
-166
-152
-150
-143
-126
-119
-124
-115
-96
-91
-91
-79
-72
-79
-96
-100
-89
-86
-89
-93
-98
-91
-75
-70
-75
-65
-53
-68
-75
-58
-51
-56
-46
-30
-25
-25
-18
-14
-9
0
9
4
-11
-11
4
21
46
72
68
56
56
37
16
23
32
28
30
42
49
44
37
14
-16
100
556
1265
1535
758
-117
-58
154
-35
-93
4
-16
-37
11
18
-9
-16
-14
-4
9
7
0
18
46
65
82
103
119
133
157
187
215
237
258
286
298
291
286
279
248
197
133
53
-25
-82
-115
-143
-154
-147
-147
-152
-152
-157
-171
-178
-171
-176
-187
-176
-154
-150
-147
-138
-133
-129
-115
-105
-98
-91
-86
-79
-75
-72
-68
-61
-58
-51
-39
-35
-37
-30
-39
-68
-75
-72
-75
-70
-53
-46
-46
-37
-25
-18
-23
-18
-4
2
2
7
-2
-14
2
35
58
70
70
68
58
46
53
58
51
53
53
30
14
14
-4
-53
-35
246
863
1436
1162
138
-277
56
93
-103
-65
-2
-37
-30
7
7
4
23
46
58
65
79
91
96
112
136
159
173
157
147
171
204
237
265
281
302
335
352
349
340
305
234
136
39
-32
-89
-126
-147
-159
-159
-154
-147
-145
-145
-131
-115
-107
-105
-112
-119
-119
-133
-145
-138
-129
-133
-147
-161
-152
-138
-143
-131
-112
-119
-119
-100
-96
-103
-93
-68
-56
-65
-63
-42
-44
-46
-23
-14
-28
-21
-2
0
-14
-39
-68
-75
-65
-61
-56
-32
2
25
23
16
21
11
-7
2
23
23
21
28
30
32
39
16
-18
119
633
1274
1241
279
-394
-84
169
-28
-58
37
2
-11
28
28
25
53
65
65
82
86
75
79
105
122
129
150
180
199
215
239
258
279
312
342
363
370
373
368
340
265
159
49
-51
-112
-145
-171
-185
-185
-183
-183
-166
-150
-145
-136
-129
-122
-110
-98
-96
-103
-107
-110
-112
-112
-103
-98
-105
-105
-89
-79
-91
-100
-96
-93
-93
-79
-70
-75
-75
-65
-61
-53
-39
-32
-42
-37
-18
-14
-14
-9
-14
-39
-51
-35
-35
-51
-39
-7
18
32
37
39
23
-7
-7
4
-11
-39
-42
-30
-18
-9
-11
-51
-65
143
701
1354
1310
345
-281
-18
115
-93
-89
-2
-46
-58
-9
0
-2
11
25
35
42
44
56
70
79
96
119
133
150
173
190
204
232
260
277
293
309
326
333
328
307
251
164
82
21
-30
-79
-110
-140
-166
-161
-143
-150
-159
-150
-140
-138
-136
-147
-166
-159
-138
-140
-145
-138
-140
-152
-147
-129
-124
-124
-119
-115
-112
-107
-96
-86
-84
-82
-72
-65
-61
-49
-42
-53
-61
-44
-35
-37
-30
-21
-23
-21
-9
-2
-7
-7
-2
-7
-21
-11
11
25
46
70
68
58
53
44
35
42
51
53
49
49
56
49
23
-14
16
305
943
1523
1162
103
-234
68
-2
-183
-93
-46
-100
-79
-37
-42
-28
-4
0
2
23
46
53
68
89
103
112
136
161
171
178
197
223
244
269
302
321
319
319
319
286
218
140
63
-2
-53
-96
-122
-126
-129
-129
-119
-107
-105
-112
-112
-93
-79
-82
-70
-61
-84
-107
-98
-91
-103
-100
-93
-103
-110
-122
-131
-129
-129
-124
-112
-105
-98
-93
-110
-119
-100
-89
-91
-82
-72
-65
-58
-46
-42
-42
-39
-32
-30
-32
-28
-18
-14
-16
-21
-21
-7
14
35
49
46
44
44
35
28
35
42
42
46
49
42
44
51
14
-4
227
821
1422
1218
192
-323
0
103
-86
-56
16
-30
-32
4
9
16
25
11
16
44
49
49
77
105
122
138
157
171
194
232
255
258
288
335
340
331
345
345
307
272
227
136
30
-44
-100
-150
-176
-180
-180
-185
-187
-183
-164
-150
-145
-138
-126
-110
-98
-96
-86
-84
-100
-105
-98
-100
-105
-103
-105
-119
-129
-112
-100
-112
-112
-93
-82
-75
-65
-63
-65
-68
-82
-100
-93
-79
-75
-68
-58
-58
-53
-46
-25
18
37
21
18
16
0
2
11
-2
-16
-14
-2
-7
-16
-21
-49
-35
262
899
1333
805
-206
-356
70
65
-82
-7
9
-39
-4
32
25
46
68
53
63
100
115
115
124
129
124
145
180
201
213
232
262
291
314
345
366
373
385
389
340
253
176
84
-7
-61
-86
-115
-138
-136
-122
-117
-107
-105
-129
-143
-126
-126
-145
-140
-112
-100
-107
-91
-77
-82
-79
-75
-79
-105
-131
-126
-119
-131
-122
-103
-110
-117
-105
-100
-96
-79
-72
-79
-68
-46
-51
-65
-58
-49
-70
-89
-77
-42
-7
11
11
7
2
-7
-2
14
11
0
-4
-9
-9
-2
-9
-44
-70
49
495
1183
1432
645
-251
-152
152
-21
-122
-39
-51
-70
-14
16
7
4
18
28
32
56
86
89
84
117
152
161
185
208
201
204
237
267
284
309
354
377
366
370
359
258
126
42
-9
-58
-103
-131
-154
-152
-122
-86
-72
-98
-136
-129
-105
-89
-61
-63
-86
-39
-9
-117
-178
-110
-100
-103
-35
-30
-68
-44
-35
-70
-82
-91
-105
-98
-86
-96
-112
-110
-77
-49
-61
-100
-105
-65
-46
-16
14
-25
-68
-35
-14
-35
-39
-9
9
2
-9
-18
-14
-58
-110
115
737
1342
1143
145
-356
-37
68
-112
-89
-72
-119
-35
21
-51
-49
49
77
7
-35
2
25
32
70
79
68
103
152
178
204
260
328
349
293
269
361
424
375
323
312
244
68
-77
-86
-79
-140
-187
-173
-157
-161
-159
-145
-126
-96
-72
-105
-157
-126
-77
-77
-65
-49
-56
-49
-28
-32
-44
-42
-44
-51
-42
-28
-46
-65
-61
-79
-107
-103
-96
-93
-68
-30
-25
-35
-28
-39
-72
-86
-75
-72
-89
-96
-89
-91
-107
-129
-122
91
666
1263
1011
-49
-516
-107
32
-150
-117
-53
-98
-86
-44
-49
-42
-7
7
9
25
46
61
82
103
122
140
159
180
206
241
284
312
331
352
377
399
408
392
342
258
154
63
-16
-77
-110
-129
-140
-138
-133
-152
-169
-150
-131
-126
-122
-124
-143
-136
-107
-91
-93
-89
-70
-58
-65
-65
-56
-56
-63
-51
-35
-35
-35
-25
-21
-16
-4
2
-2
-4
7
7
-11
-11
14
42
53
61
63
56
39
30
32
35
39
35
16
0
2
-16
-65
2
385
1082
1556
995
-49
-206
107
-14
-161
-70
-53
-103
-91
-79
-82
-65
-49
-42
-46
-61
-56
-23
-16
-23
-2
21
32
49
84
115
138
166
206
234
255
279
295
279
241
185
96
9
-46
-91
-126
-136
-131
-129
-131
-126
-117
-112
-105
-89
-84
-86
-77
-61
-63
-68
-58
-51
-51
-37
-23
-21
-21
-14
-9
-11
-7
4
4
-2
2
14
14
16
23
18
16
28
37
32
14
-14
-28
-30
-23
0
23
23
21
21
-7
-25
-16
-11
-18
-7
7
4
4
-2
-44
-77
53
516
1230
1502
709
-190
-129
100
-86
-159
-61
-68
-93
-65
-63
-77
-82
-82
-68
-49
-42
-35
-14
7
21
44
70
82
100
136
164
185
215
246
267
291
314
321
305
260
192
107
23
-56
-129
-171
-173
-173
-185
-183
-169
-164
-161
-145
-129
-117
-117
-115
-107
-112
-115
-93
-82
-86
-79
-61
-56
-51
-42
-37
-42
-35
-18
-11
-16
-16
-9
-7
-4
2
-2
-21
-18
-2
-2
-7
4
7
2
9
18
18
21
28
25
16
11
18
21
25
58
86
75
63
70
58
39
28
23
16
-7
-28
-37
-42
-58
-98
-44
347
1063
1497
901
-117
-253
61
-49
-199
-124
-112
-157
-124
-103
-129
-126
-103
-100
-91
-63
-44
-28
0
14
23
44
68
82
100
124
150
185
215
237
269
295
302
302
281
230
159
68
-25
-86
-117
-140
-159
-157
-150
-152
-150
-133
-119
-110
-110
-100
-89
-96
-119
-133
-133
-115
-96
-98
-96
-79
-75
-79
-68
-58
-58
-56
-49
-37
-32
-35
-25
-11
-14
-16
-9
-7
-2
14
16
9
11
18
18
21
14
-7
-37
-58
-68
-68
-51
-18
7
-2
-4
4
-14
-35
-16
2
0
0
0
-9
-16
-21
-65
-105
86
683
1321
1136
91
-434
-70
68
-140
-150
-105
-154
-145
